Timestamp, Rotation x, Rotation y, Rotation z, Marker
30,9.6875,-9.3125,1.75,0
50,6.625,-7,4.3125,0
70,2.4375,-3.375,3.25,0
90,-2.75,-3.875,-1.9375,0
110,-6.3125,-7.1875,-3.8125,0
130,-2.3125,-7.9375,4.1875,0
150,-0.0625,-3.6875,10,0
170,1.1875,0.375,7.0625,0
190,0.1875,-2.0625,-2.875,0
210,-4.25,-4.875,-0.375,0
210,0.5625,-4.5625,5.8125,0
250,-1.375,0.5625,7.25,0
270,-0.5625,5.1875,7.5,0
290,-0.375,9,3.1875,0
300,-0.125,9.75,-6.125,0
320,-0.125,6.5625,-4.3125,0
340,0.875,5.3125,-2.25,0
360,4.1875,6.3125,-4.1875,0
370,6.25,5.875,-5.125,0
390,7.1875,2.75,-3.1875,0
410,4.9375,0.375,-0.125,0
430,2.0625,0.4375,1.1875,0
450,2,2.5,2.25,0
470,0.5,2.9375,3.75,0
490,-3.9375,3.1875,3.125,0
510,-8.125,3.5,0.6875,0
530,-8.875,2.625,-1.5625,0
550,-6.8125,1.375,-2.0625,0
570,-2.8125,0.25,-2.125,0
590,-1.0625,-0.3125,-3.1875,0
610,1.875,-0.4375,-3.6875,0
630,3,-1.5,-3,0
650,4.4375,-1.5625,-2.4375,0
670,2.0625,-0.75,-0.9375,0
690,-2.75,-0.125,0.4375,0
710,-5.75,0.1875,0.875,0
730,-7.375,0.125,1.6875,0
750,-6.3125,-0.3125,1.1875,0
770,-5.1875,-0.5,0.375,0
780,-3.875,-0.625,0.4375,0
800,-2.8125,-0.1875,-0.25,0
820,-1.75,0.1875,-0.75,0
840,-0.25,0.3125,-1.25,0
860,0.375,0.75,-1.125,0
880,-1.375,1.375,-0.5625,0
900,-3.0625,2,0,0
920,-4.3125,1.8125,1.4375,0
940,-5.125,1.125,3.0625,0
960,-4.0625,0.625,2.5625,0
980,0.4375,-1,0.75,0
1000,0.9375,-1.125,0,0
1020,3,-1.125,-2.3125,0
1040,2.375,-0.1875,-2.4375,0
1060,0.6875,0.125,-1.9375,0
1080,-0.125,0.125,-1.75,0
1100,0.625,0.375,-1.375,0
1120,2.9375,0.6875,-1.4375,0
1140,7.0625,0.5,-1,0
1160,4.75,-1.875,2.3125,0
1180,-0.0625,-3.3125,5.5625,0
1200,0.875,0.375,1,0
1220,1.25,3.75,3.75,0
1240,0.9375,2.8125,6.9375,0
1260,3.75,4.25,0.8125,0
1280,7.75,4.1875,-0.3125,0
1300,6.875,1.25,-0.8125,0
1320,8.0625,3.75,-3.6875,0
1340,10,5.0625,-6.0625,0
1360,12.125,2.375,-6.625,0
1380,6.8125,-2.0625,-5.9375,0
1400,0,-2.625,-2.125,0
1420,0.1875,-2.375,-1.3125,0
1440,5.0625,-3.1875,-2.8125,0
1460,7.25,-3.5625,-4.375,0
1480,7.375,-4,-4.125,0
1500,11.25,-6.125,-1.6875,0
1520,12.875,-8.3125,1,0
1540,9.5625,-8.5,1.375,0
1560,1.3125,-4.6875,1.1875,0
1580,-6.5625,1.375,-1.0625,0
1600,-10.375,4.6875,-1,0
1620,-7.625,6.5625,-1.1875,0
1640,-4.0625,6.375,-7.125,0
1660,-7.75,4.4375,-8.5,0
1680,-8.6875,2.9375,-6.1875,0
1700,-6.3125,2.5625,-4.0625,0
1720,-4.75,1.9375,-3.625,0
1740,-4.25,1.3125,-3.8125,0
1760,-3,0.375,-3.625,0
1780,-1.6875,-0.25,-3.0625,0
1800,-0.375,-1.3125,-2.875,0
1820,1.0625,-2.0625,-1.6875,0
1830,-0.1875,-2.0625,0.1875,0
1850,-4,-1.25,1.5,0
1870,-7.375,-0.1875,3.0625,0
1890,-8.375,0.25,3.25,0
1910,-8.125,0.25,3,0
1930,-9.75,0.0625,3.1875,0
1950,-8.125,0.6875,3.875,0
1980,-7,2,3.6875,0
2000,-5.9375,1.1875,4.25,0
2020,-4.9375,0.625,4.4375,0
2040,-6.375,1.1875,4.375,0
2060,-6.6875,2.5,3.4375,0
2080,-5.6875,2.6875,2.0625,0
2100,-5.375,2.125,1.625,0
2120,-4.3125,2.5,1.375,0
2140,-2.75,2.375,-0.4375,0
2160,0.625,0.1875,-1.8125,0
2180,2,-1.125,-0.9375,0
2200,1.8125,-1.0625,0.4375,0
2220,-0.375,-0.625,1.375,0
2240,-1.25,1.0625,0.625,0
2260,-0.125,1.8125,0.25,0
2280,1.1875,0.9375,0.25,0
2300,1.0625,-0.5,-0.625,0
2320,0.1875,-1.5,-0.875,0
2340,2.125,-1.6875,-1.0625,0
2360,3.8125,-0.6875,-0.875,0
2380,3.3125,0.125,-0.25,0
2400,0.875,-0.25,0.1875,0
2420,-1.375,-1.125,0.1875,0
2440,-1.5,-1.5,-0.1875,0
2460,0.375,-2,-0.6875,0
2480,1.6875,-2.375,-0.5625,0
2500,1.375,-2.1875,0,0
2520,-0.125,-0.8125,0.5,0
2540,-0.5625,0,2.25,0
2560,-0.1875,0,2.5,0
2580,-0.25,-0.3125,1.25,0
2600,-0.25,-1.3125,1,0
2620,-1.125,-1.8125,0.5625,0
2640,-0.4375,-1.75,-0.25,0
2660,2.0625,-1.5625,-2,0
2680,4.3125,-1.3125,-2,0
2700,4.8125,-0.6875,-1.25,0
2720,4.3125,-0.0625,-0.6875,0
2730,3,-0.125,-0.375,0
2750,1.3125,-0.1875,-0.0625,0
2770,0.5,0,0.375,0
2790,-0.75,-0.25,1.0625,0
2810,-0.0625,-0.1875,1.3125,0
2830,1.5,-0.375,0.75,0
2850,1.75,-0.4375,0.5,0
2870,1.75,-0.5625,0.625,0
2890,1.4375,-0.6875,0.375,0
2910,0.75,-0.5625,0.4375,0
2930,1.5,0.125,-0.375,0
2950,3.6875,-0.375,-1.375,0
2970,1.4375,-0.8125,-0.75,0
2990,-0.3125,-0.1875,0.1875,0
3010,-0.75,0,1.3125,0
3030,-0.5,-0.4375,1.3125,0
3050,-0.0625,-0.5,1.5,0
3070,-0.4375,-0.4375,1.3125,0
3090,-0.75,-0.25,0.75,0
3110,-0.9375,-0.5,-0.0625,0
3130,-1.125,-0.5625,-0.8125,0
3150,-0.75,-0.4375,-0.875,0
3170,-0.3125,-0.125,-1,0
3190,0.375,0.0625,-0.75,0
3210,1.4375,0.125,-1.0625,0
3230,1.75,0.125,-1.1875,0
3250,1.375,0.0625,-1,0
3270,0.25,0.125,-0.5625,0
3290,0.25,0.1875,-0.5,0
3310,0.3125,0.25,-0.375,0
3330,0.3125,0.3125,0,0
3350,-0.1875,0.3125,-0.0625,0
3370,-0.5625,0.4375,0,0
3390,0,0.3125,0.1875,0
3410,-0.25,0.1875,0.4375,0
3430,-1.3125,0,0.8125,0
3450,-2,0.0625,0.9375,0
3470,-2.0625,0.0625,0.6875,0
3490,-1.5625,-0.1875,0.625,0
3510,-1.3125,-0.25,0.1875,0
3530,-1,-0.25,-0.0625,0
3550,-0.5,0,-0.0625,0
3570,-1,0.3125,-0.375,0
3590,-1.25,0.375,-0.25,0
3610,-0.9375,0.25,-0.0625,0
3630,-1.4375,0,0.0625,0
3650,-0.9375,-0.0625,0.375,0
3670,-0.625,-0.4375,0.625,0
3690,0.3125,-0.3125,0.625,0
3710,0.5,-0.3125,-0.0625,0
3730,0.625,-0.4375,-1,0
3750,0.0625,-0.6875,-1.3125,0
3770,-0.75,-0.125,-1.125,0
3790,1.375,-0.25,-2.375,0
3810,5.3125,-1.625,-3.3125,0
3830,7.8125,-2.375,-2.0625,0
3850,5.375,-2.0625,0.375,0
3870,1.4375,-1.0625,1.8125,0
3900,-2.8125,0.125,3.5,0
3920,-3.5,-0.1875,1.75,0
3940,-3.5625,-1.125,1.9375,0
3960,-3,-1,3.4375,0
3980,-1.1875,0.625,4.25,0
4000,-0.6875,1.3125,3.25,0
4020,-2.3125,0.3125,2.875,0
4040,-3,-0.5,1.9375,0
4060,-3.4375,-0.4375,0.5625,0
4080,-3.0625,0.125,-0.5625,0
4100,-3.4375,1.9375,-0.4375,0
4120,-5.3125,2.8125,1.375,0
4140,-7.3125,2.875,1.375,0
4160,-6.9375,1.9375,0.125,0
4180,-7.1875,0.5625,-1.125,0
4200,-5.625,-1,-2.4375,0
4220,1.5,-3.5,-3.25,0
4240,8.6875,-5.125,-4.5625,0
4260,11.8125,-6.4375,-5.9375,0
4280,8.5625,-7,-3.6875,0
4300,10.9375,-8.5,-2.125,0
4320,12.4375,-9.25,-2.6875,0
4340,14.8125,-11.375,-3.4375,0
4360,18,-10.0625,-6.8125,0
4380,17.1875,-6.9375,-7.0625,0
4400,17.125,-5.4375,-5.0625,0
4420,17.625,-3.375,-5.875,0
4440,16.9375,-2,-5.75,0
4460,18.9375,-3,-4.5,0
4480,20.625,-4.625,-3.875,0
4500,19.375,-4.1875,-0.875,0
4520,15.875,-2.6875,2.0625,0
4540,10.75,-0.375,3.875,0
4560,5.5625,0.75,7.6875,0
4580,-0.5,1.875,9.6875,0
4600,-8.4375,2.125,7.5,0
4620,-15.6875,2.4375,5.1875,0
4640,-17.75,2.75,3.125,0
4660,-14.125,2.5,3.25,0
4680,-9.1875,1.9375,3.5625,0
4700,-7.125,1.125,3.4375,0
4720,-2.1875,1.0625,2.0625,0
4740,0.5625,0.375,-0.5,0
4760,0.75,0.375,-2.5,0
4780,-0.1875,0.6875,-4.0625,0
4800,1.4375,0.9375,-6,0
4820,1.75,1.0625,-7.1875,0
4840,2.125,0.75,-8.0625,0
4860,1.25,0.25,-8.3125,0
4880,1.8125,0.25,-5.5625,0
4900,2.75,1.125,-2.6875,0
4920,2.1875,1.125,0.375,0
4940,3.8125,0.1875,2.875,0
4960,4.0625,0.1875,3.875,0
4980,2.25,0.1875,4.625,0
5000,1.625,0.1875,4.375,0
5020,0.1875,-0.625,4.4375,0
5040,0.9375,-0.4375,4.1875,0
5060,-0.0625,0.125,3.5,0
5080,0.375,0.0625,3.25,0
5100,0.1875,0.3125,1.9375,0
5120,0.25,0.5625,0.375,0
5140,1.5625,0.625,-0.5625,0
5160,0.375,0.75,-2.5625,0
5180,0.25,0.8125,-3.375,0
5200,0.6875,1.25,-3.8125,0
5220,1.75,1.3125,-3.6875,0
5240,1.9375,1.25,-3.5,0
5260,1.8125,1.5625,-3.6875,0
5280,1,1.75,-4.6875,0
5300,2.625,1.625,-5.1875,0
5320,2.6875,1.6875,-4.8125,0
5340,0.5625,1.375,-4.125,0
5360,-0.1875,1.125,-3.125,0
5380,-2.4375,0.6875,-1.25,0
5400,-3.125,0.75,0.4375,0
5420,-3.1875,0.75,0.5,0
5440,-2,0.5,0.4375,0
5460,-1,0.0625,-0.3125,0
5480,-1.125,0.0625,-0.8125,0
5500,-0.3125,0,-1.1875,0
5520,-0.25,0.125,-1.5,0
5540,-0.5,0.25,-1.5625,0
5560,-0.6875,0.1875,-1.25,0
5580,0.25,0.1875,-0.625,0
5600,0.0625,0.625,-0.125,0
5620,-0.625,0.25,0.125,0
5640,-0.1875,0,0.3125,0
5660,1.125,-0.25,0.375,0
5680,2.125,-0.3125,0.625,0
5700,2.5,-0.125,0.1875,0
5720,1.0625,-0.4375,0.5625,0
5740,1,-0.25,0.125,0
5760,1,-0.375,0.1875,0
5790,1.4375,-0.4375,-0.0625,0
5810,2.0625,-0.4375,0,0
5830,2.1875,-0.5625,0.0625,0
5850,1.75,-0.4375,0.1875,0
5870,1.125,-0.625,0.5,0
5890,2,-0.5,0.625,0
5900,2.0625,-0.6875,0.0625,0
5920,3,-0.8125,-0.1875,0
5940,3.375,-0.9375,-0.5625,0
5960,3.5,-1.0625,-0.75,0
5980,3.5,-1.0625,-0.875,0
6000,3.875,-1.125,-0.625,0
6020,3.75,-1.1875,-0.375,0
6040,2.875,-1.25,0,0
6060,2.875,-1.75,1.125,0
6080,4.8125,-1.5,0.9375,0
6100,5.1875,-1.3125,0.4375,0
6110,3.625,-1.4375,-0.3125,0
6130,2.4375,-1.25,-0.75,0
6150,1.9375,-1.0625,-0.25,0
6170,2.125,-0.875,-0.1875,0
6190,2.6875,-1.0625,0.0625,0
6210,2.1875,-2,0,0
6230,2.1875,-1.3125,-0.625,0
6250,2,-0.9375,-0.875,0
6270,2.3125,-0.8125,-0.8125,0
6290,1.3125,-0.5,-0.6875,0
6310,0.5625,-0.5,-0.5,0
6330,0.375,-0.3125,-0.1875,0
6350,0.625,-0.125,0.0625,0
6370,0.25,-0.1875,-0.1875,0
6390,-0.1875,-0.5,-0.3125,0
6410,0.5,-0.5,-0.1875,0
6430,0.5625,-0.4375,0.3125,0
6450,0.375,-0.0625,0.625,0
6470,-1.25,0.1875,0.4375,0
6490,-2.0625,0.3125,-0.5625,0
6510,-0.5,0.1875,-1.4375,0
6530,0.25,0.1875,-1.125,0
6550,-2.5,0.1875,0.875,0
6570,-5.6875,0.125,2.125,0
6590,-4.5625,0.1875,0.9375,0
6610,-0.6875,0.125,-0.6875,0
6630,1.6875,-0.1875,-1.5,0
6650,1.0625,-0.5,-1.625,0
6670,-0.125,-0.6875,-1.5625,0
6690,-0.3125,0,-0.9375,0
6710,-1.8125,0.5,0.1875,0
6730,-2.8125,0.8125,1,0
6750,-3.3125,0.5,1.3125,0
6770,-2.3125,0.1875,0.9375,0
6790,-1.8125,-0.125,0.3125,0
6810,-1.375,-0.25,-0.4375,0
6830,-0.3125,-0.1875,-0.625,0
6850,1.75,-0.1875,-0.25,0
6870,1.375,-0.1875,0.3125,0
6890,-1.3125,-0.1875,0.375,0
6910,-2.75,-0.3125,0.25,0
6930,-1.875,0.1875,0.625,0
6950,-1.25,0.25,1.1875,0
6970,-2.1875,0.0625,1.125,0
6990,-1.75,0.1875,1.25,0
7010,-0.875,0.125,0.6875,0
7030,-1.1875,0.0625,0.1875,0
7050,-1.25,-0.1875,-0.3125,0
7070,-1.5,0.0625,-0.1875,0
7090,-1.5625,0.375,-0.125,0
7110,-1.4375,0.375,-0.1875,0
7130,-1.0625,0.1875,-0.25,0
7150,-1,0.25,0.125,0
7170,-1.5,0.375,-0.3125,0
7190,-2.1875,0.1875,-0.4375,0
7210,-1.8125,0.1875,-0.6875,0
7230,-1.1875,0.0625,-0.625,0
7250,-0.9375,-0.0625,-0.625,0
7270,-1.125,-0.5,-0.3125,0
7290,-0.1875,-0.1875,-0.625,0
7310,-0.5,-0.125,-0.5,0
7330,-1.5,0.125,-0.125,0
7350,-1.8125,0.375,0.1875,0
7370,-2.4375,0.375,0.625,0
7390,-2.1875,0.1875,0.75,0
7410,-1.5,0.1875,0.625,0
7430,-0.3125,0.25,0.5625,0
7450,-0.5,0.125,0.25,0
7470,-0.0625,-0.0625,0,0
7490,-0.1875,0.0625,-0.3125,0
7510,0.1875,0.0625,-0.125,0
7530,-0.3125,-0.1875,-0.25,0
7550,-0.25,0,-0.0625,0
7570,-0.25,-0.0625,-0.125,0
7590,-0.1875,-0.125,-0.1875,0
7610,-0.75,0,0.125,0
7630,-0.75,0.125,0.1875,0
7650,-0.8125,0.0625,0.4375,0
7670,-1.1875,0,0.6875,0
7690,-0.4375,-0.375,0.75,0
7710,0.75,-0.0625,0.375,0
7730,0,0.0625,-0.375,0
7750,-0.25,-0.5625,-0.6875,0
7770,-0.125,-0.5,-0.75,0
7790,0.6875,-0.1875,-0.25,0
7810,-0.1875,-0.0625,0,0
7830,0.875,-0.375,0,0
7850,1,-0.6875,-0.25,0
7870,1,-0.5,-0.625,0
7890,0.75,-0.125,-0.3125,0
7910,0.125,-0.0625,0.1875,0
7930,-0.8125,-0.125,0.5,0
7950,-0.875,-0.3125,0.6875,0
7970,-0.1875,0.125,1,0
7990,-0.1875,0.1875,1.1875,0
8010,-0.375,0,0.6875,0
8030,-0.5625,-0.4375,0.3125,0
8050,0.375,-0.4375,0.3125,0
8070,0.5625,-0.1875,0,0
8080,0.4375,-0.3125,-0.125,0
8100,0,-0.1875,0,0
8120,-0.6875,-0.0625,-0.25,0
8140,-0.75,-0.25,-0.1875,0
8160,-1,0.0625,-0.125,0
8180,-1.75,0.0625,0,0
8200,-1.4375,0.0625,0,0
8220,-1.25,0.0625,0.3125,0
8240,-0.6875,0.125,0.25,0
8260,-1.1875,0.125,0.125,0
8280,-1,0.0625,0.5,0
8300,-1,0,0.25,0
8320,-0.875,-0.125,0.25,0
8340,-0.875,-0.25,0.1875,0
8360,-0.5,-0.1875,0.125,0
8380,-0.875,0,-0.125,0
8400,-0.8125,-0.3125,0.1875,0
8420,-0.5625,-0.1875,0.0625,0
8440,-1.1875,0,0,0
8460,-1.875,0,-0.0625,0
8480,-1.25,0.0625,0.5,0
8500,-1.5,0.0625,0.25,0
8520,-1.75,-0.25,0.375,0
8540,-1.375,0.1875,0.5625,0
8560,-1.25,0.125,0.5625,0
8580,-0.6875,0.3125,0.4375,0
8600,-1.4375,0.625,-0.25,0
8620,-2.0625,-0.25,0,0
8640,-1.4375,0.1875,-0.25,0
8660,-1.5625,0.0625,0.1875,0
8680,-0.5,-0.0625,0.25,0
8700,-0.25,-0.25,-0.125,0
8720,-0.75,-0.3125,-0.625,0
8740,0.0625,-0.0625,-0.5,0
8760,0.125,-0.0625,-0.1875,0
8780,-1.25,-0.0625,0.125,0
8800,-1.75,0.1875,0.75,0
8820,-1.6875,-0.0625,0.9375,0
8840,-0.8125,-0.0625,1.4375,0
8860,0.375,0.3125,0.75,0
8880,0.375,-0.375,0.75,0
8900,0.4375,-0.5,0.5625,0
8920,0.1875,-0.4375,0.4375,0
8940,0.75,-0.4375,0.625,0
8960,0.875,-0.25,0.625,0
8980,0.6875,-0.3125,0.625,0
9000,0.5625,-0.5,0.625,0
9020,0.625,-0.375,0.4375,0
9040,-0.25,-0.25,0.375,0
9060,-0.625,-0.25,0.5625,0
9080,-0.8125,-0.25,0.625,0
9100,0.125,-0.25,0.875,0
9120,0.3125,-0.25,0.6875,0
9140,0.4375,-0.1875,0.75,0
9160,0,-0.3125,0.4375,0
9180,0.0625,-0.375,0.5625,0
9200,0.5,-0.3125,0.625,0
9220,0.3125,-0.25,0.5,0
9240,-0.3125,-0.1875,0.4375,0
9260,-0.3125,-0.25,0.6875,0
9280,-0.25,-0.5,1.0625,0
9300,-0.1875,-0.4375,1.375,0
9320,-0.1875,-0.5,1.6875,0
9340,-0.625,-0.3125,1.25,0
9360,-0.125,-0.375,0.9375,0
9380,0.25,-0.375,0.625,0
9400,0.0625,-0.375,0.25,0
9420,-0.25,-0.375,0.375,0
9440,0.3125,-0.25,0.5625,0
9460,1.1875,-0.25,0.5,0
9480,1.125,-0.375,0,0
9500,0.3125,-0.6875,-0.625,0
9520,-0.125,-0.4375,-0.6875,0
9540,0.1875,-0.375,0,0
9560,0.1875,-0.4375,0.3125,0
9580,0.75,-0.3125,0.25,0
9600,0.9375,-0.6875,-0.3125,0
9620,0.4375,-0.5,-0.8125,0
9640,0.8125,-0.375,-0.9375,0
9660,0.125,-0.1875,-0.625,0
9680,-0.75,-0.125,-0.3125,0
9700,-0.4375,-0.5625,-0.0625,0
9720,0.5625,-0.25,0.4375,0
9740,0.1875,-0.125,0.375,0
9760,-0.375,-0.3125,-0.0625,0
9780,-0.1875,-0.375,-0.1875,0
9800,0.75,-0.5,-0.0625,0
9820,1.125,-0.5,0,0
9840,0.6875,-0.1875,0.0625,0
9860,-0.0625,-0.125,0.0625,0
9880,-0.5625,-0.0625,0,0
9900,-0.4375,-0.3125,0,0
9920,-0.375,-0.25,-0.0625,0
9940,-0.6875,-0.1875,0,0
9960,-0.5625,-0.1875,0.125,0
9980,-0.5625,0,0.25,0
10000,-0.0625,-0.1875,0.5625,0
10020,-0.25,-0.0625,0.25,0
10040,-0.75,-0.0625,0.1875,0
10060,-0.625,-0.125,0.125,0
10080,-0.75,-0.1875,0.0625,0
10100,-0.375,-0.3125,-0.0625,0
10120,-0.25,-0.1875,-0.0625,0
10140,-0.1875,0,-0.125,0
10160,-0.4375,-0.1875,0.0625,0
10180,-0.3125,-0.125,-0.0625,0
10200,-0.75,-0.3125,-0.0625,0
10220,-1.0625,-0.25,0.125,0
10240,-0.9375,0,0.0625,0
10260,-0.875,-0.125,0.3125,0
10280,-0.75,-0.0625,0.5625,0
10300,-0.9375,-0.25,0.5625,0
10320,-0.375,0.0625,0.5,0
10340,-0.9375,0.125,-0.0625,0
10360,-1.6875,-0.1875,-0.5625,0
10370,-1.25,-0.125,-0.4375,0
10390,-1.0625,-0.1875,-0.0625,0
10410,-0.6875,0,0.1875,0
10430,-0.1875,-0.1875,0,0
10450,-0.25,-0.375,-0.5,0
10470,0.1875,-0.4375,-0.9375,0
10490,0.75,-0.25,-0.625,0
10510,-0.0625,-0.125,-0.0625,0
10530,-1.1875,0.0625,0,0
10550,-0.5625,-0.0625,0.4375,0
10570,-0.0625,0,1.1875,0
10590,-0.4375,-0.125,1.3125,0
10610,-1.375,-0.3125,0.9375,0
10630,-1.125,-0.3125,0.875,0
10650,0.375,-0.4375,0.6875,0
10670,0.875,-0.5625,0.375,0
10690,1.25,-0.5625,0.1875,0
10710,1.125,-0.5625,-0.0625,0
10730,1.0625,-0.625,-0.125,0
10750,0.625,-0.4375,-0.125,0
10770,0.375,-0.375,-0.0625,0
10790,-0.3125,-0.3125,0,0
10810,0,-0.375,0.25,0
10830,0.375,-0.1875,0.25,0
10850,0.125,-0.125,0.125,0
10870,-0.25,-0.1875,0.125,0
10890,0.125,-0.1875,0.125,0
10910,-0.125,-0.25,-0.1875,0
10930,0.3125,-0.25,-0.3125,0
10950,0.25,-0.3125,-0.375,0
10970,0.0625,-0.5,-0.25,0
10990,0.25,-0.3125,-0.125,0
11010,0.0625,-0.25,0.0625,0
11030,-0.3125,-0.1875,0.125,0
11050,-0.75,-0.1875,0.1875,0
11070,-0.875,-0.25,0.3125,0
11090,-0.25,-0.1875,0.125,0
11110,-0.125,-0.25,-0.0625,0
11130,-0.5625,-0.25,0.125,0
11150,-0.625,-0.1875,0.375,0
11170,-0.1875,-0.3125,0.4375,0
11190,0,0,0.375,0
11210,-0.6875,-0.25,-0.1875,0
11230,-1.125,-0.3125,-0.5625,0
11250,-0.1875,-0.1875,0,0
11270,-0.8125,-0.25,0.25,0
11290,-0.75,-0.3125,0.5,0
11310,-1.8125,0.1875,1.1875,0
11330,-5.1875,-0.0625,5,0
11350,-7.9375,-0.8125,9.5,0
11370,-7.3125,-1.4375,13,0
11390,-1.3125,-7.1875,16.125,0
11410,20,-15.4375,4.9375,0
11430,14.9375,-28.0625,1,0
11450,-2.8125,-44.5625,-3.6875,0
11470,-8.8125,-54.5,-18.3125,0
11480,-17.375,-66.125,-28.875,0
11500,-14.0625,-86.5,-36.4375,0
11520,-14.6875,-109,-44.375,0
11540,-9.9375,-125.75,-51.1875,0
11560,-8,-136.312,-59.0625,0
11580,-17.75,-142.438,-62.5625,0
11600,-31.375,-145.562,-61.0625,0
11620,-44.4375,-145.625,-60,0
11640,-52.1875,-143.062,-58.1875,0
11660,-56.25,-138.062,-53.0625,0
11680,-61.3125,-130.688,-49.8125,0
11700,-60.4375,-122.625,-48.5,0
11740,-71.6875,-103.812,-32.5,0
11770,-69.375,-77.5625,-34.4375,0
11790,-65.75,-65.625,-29.0625,0
11810,-68.625,-55.375,-21.0625,0
11830,-66.25,-43.875,-19.75,0
11850,-55.4375,-35.5,-24,0
11870,-47.75,-31.9375,-17.8125,0
11890,-49.0625,-29.5,-10.3125,0
11910,-49.625,-24.0625,-10.8125,0
11930,-45.5,-20.4375,-13.875,0
11950,-36.8125,-19.75,-13.5,0
11970,-30.0625,-19.75,-12.9375,0
11990,-24.0625,-16.25,-9.1875,0
12010,-22.5625,-13.6875,-4.5625,0
12030,-20.625,-11.4375,-5.5,0
12050,-19.3125,-10.625,-6.875,0
12070,-18.9375,-8.1875,-1.3125,0
12090,-22.9375,-5.75,6.25,0
12110,-26.25,-4.125,8.1875,0
12130,-22.25,-4.4375,7.75,0
12150,-22.8125,-6.375,12.4375,0
12170,-21.6875,-4.625,13.0625,0
12190,-19.4375,-2.6875,11.625,0
12210,-22.125,-3.6875,12.75,0
12230,-15.1875,-2.625,10.9375,0
12250,-8.875,0.25,8.375,0
12270,-8.5625,2.6875,8,0
12290,-8.9375,1.25,7.125,0
12310,-6.0625,1.375,8.6875,0
12330,-5.8125,4.8125,9.625,0
12350,-10.8125,6,8.375,0
12370,-12.625,2.875,5.375,0
12390,-7.5625,0.375,4.9375,0
12410,-4.625,-0.6875,6.9375,0
12430,-1.125,-2.25,7.875,0
12450,-1.1875,-4.0625,3.6875,0
12470,-2.125,-4.25,2.0625,0
12490,-1.75,-2.6875,6.0625,0
12510,-5.25,-3.375,3.8125,0
12530,-7.375,-4.6875,2.0625,0
12550,-4.6875,-3.6875,4.9375,0
12570,-1.875,-3.0625,5.3125,0
12590,2.0625,-2.4375,5,0
12610,2.4375,-1,2.8125,0
12630,0.4375,-1.3125,1.8125,0
12650,-1.6875,-1.9375,1.1875,0
12670,-1.875,-2.5625,-1.9375,0
12690,1.8125,-3,-2.125,0
12710,5.1875,-2.75,0.0625,0
12730,5.75,-2.875,-0.625,0
12750,4.6875,-2.5625,-3.3125,0
12770,5.5,-3.125,-2.625,0
12790,5,-4.3125,-2.125,0
12810,5.4375,-5.8125,-4.9375,0
12830,8.125,-8.125,-5.125,0
12850,9.6875,-8.375,-2.6875,0
12870,4.0625,-7.875,-4.5625,0
12890,4.25,-10.8125,-5.5,0
12910,3.9375,-12.125,-4.4375,0
12930,4.5,-12.1875,1.3125,0
12950,2.375,-11.375,-1.5625,0
12970,3.125,-11.5625,-4.4375,0
12990,5.375,-11.1875,-1.1875,0
13010,4.625,-12.1875,1.875,0
13030,4.9375,-10.375,-3.1875,0
13050,8.625,-9.9375,-4.5625,0
13070,8.3125,-10.125,-4.5625,0
13090,6.625,-11.8125,-6.8125,0
13110,6,-12.0625,-5.9375,0
13130,9.75,-9.1875,-4.3125,0
13150,10.0625,-7.8125,-5.375,0
13170,7.5,-8.3125,-10.0625,0
13190,9,-10.6875,-7.4375,0
13210,12.3125,-12.125,-6.4375,0
13230,14.25,-11.875,-5.0625,0
13250,13.5625,-14.375,-6.0625,0
13270,14.8125,-14.25,-7.875,0
13290,20.6875,-10.1875,-9.6875,0
13310,20,-6.625,-5.3125,0
13330,15.75,-8.375,-9.625,0
13350,20.5,-9.125,-16.9375,0
13370,24.875,-6.625,-11.5625,0
13390,10.6875,-2.625,-11,0
13400,13,-7.875,-17.8125,0
13420,27.1875,-9.8125,-15.6875,0
13440,31.0625,-5.125,-3.875,0
13460,13.875,-1.125,-11.375,0
13480,-1.6875,0,-12.0625,0
13500,-13.625,2.375,-3.8125,0
13520,-4.4375,2.4375,-1.3125,0
13540,5.25,-1.3125,3.125,0
13560,11.125,-3.125,-0.5625,0
13580,12.25,-0.8125,-3,0
13600,8.375,1.1875,-3.25,0
13620,-1.1875,3.125,-3.5,0
13640,-9.1875,1.75,0.375,0
13660,-5.625,0.1875,4.0625,0
13690,-3.4375,7.4375,8.625,0
13730,-5.5625,9.375,10.5,0
13750,-5.5625,10.875,8.625,0
13760,-18.5,16.8125,14.6875,0
13780,-32,20.25,16.875,0
13800,-29.625,16.3125,3.25,0
13820,-22.4375,13.5625,1.4375,0
13840,-20,11.6875,10.375,0
13860,-13.25,9,4.6875,0
13880,-4.3125,7.8125,1.5625,0
13900,-10.5,8.875,6.4375,0
13920,-19,8.5625,4.1875,0
13940,-21.375,9.0625,2.3125,0
13960,-16.1875,9.5625,6,0
13980,-8,12,5.6875,0
14000,-10.4375,7.625,-0.375,0
14020,-3.875,4.375,5.125,0
14040,1.4375,4.5,6.375,0
14060,-3.5,4.1875,1.8125,0
14080,-8.375,3.25,4.125,0
14100,-12,2.4375,3.4375,0
14120,-3.9375,3,-0.5,0
14140,1.6875,3,1.5625,0
14160,0.125,1.125,0.375,0
14180,-4.875,3,-4.3125,0
14200,-6.75,4,-8.1875,0
14220,-8.875,3.1875,-6.5625,0
14240,-6.8125,1.5625,-8.4375,0
14260,-1.9375,-1.0625,-6.5625,0
14280,-5.375,0.9375,0.75,0
14300,-12.1875,3.3125,-0.75,0
14320,-17.4375,2.375,-7.5,0
14340,-14.1875,1.8125,-1.625,0
14360,-11,2.4375,3.3125,0
14380,-12.1875,2,-0.375,0
14400,-13.75,1.25,4.8125,0
14420,-13.1875,1.625,1.25,2000
14440,-5.125,1.8125,4,0
14460,-2.75,0.875,11.6875,0
14480,2,-1.5,4.375,0
14500,0.4375,-2.9375,-0.4375,0
14520,2.5625,-2.875,-0.0625,0
14540,6.5625,-3.625,-0.125,0
14560,3.8125,-1.625,-1.4375,0
14580,-0.25,-0.4375,-0.6875,0
14600,6.25,1.625,3.75,0
14620,11.0625,4.1875,1.375,0
14640,4.1875,4.625,-2,0
14660,-1.4375,2.5625,1.3125,0
14680,1.5625,1.875,-0.5,0
14700,5.8125,3,0.1875,0
14720,3.9375,2.8125,2.25,0
14740,1.9375,2.3125,0.25,0
14760,-2.3125,2.1875,2.3125,0
14780,-2.8125,2.0625,3.25,0
14800,-1.5625,2.125,3.125,0
14820,1.3125,1.0625,2.9375,0
14840,-0.6875,-0.5625,-0.9375,0
14860,-4.875,-1.9375,0.8125,0
14880,-1.625,-1.75,1.9375,0
14900,-3.25,-2.5625,-1.5625,0
14920,-2.5,-4.6875,-0.375,0
14940,-2.3125,-4.9375,2.9375,0
14960,-3.8125,-3.25,2.25,0
14980,-2.875,-1.0625,0.0625,0
15000,-2.0625,-0.9375,0.0625,0
15020,-2.1875,-2.125,0.625,0
15040,-0.1875,-2.25,1.5,0
15060,4.0625,-0.9375,-0.25,0
15080,5.0625,-2.0625,-1.4375,0
15100,1.0625,-5.25,1.5625,0
15120,-1.5625,-7.8125,0.0625,0
15140,3.9375,-8,0.5625,0
15160,7.4375,-8.4375,2.875,0
15180,4.5,-10.75,1.6875,0
15200,-0.5625,-12.6875,0.5,0
15220,-1,-13.4375,0.0625,0
15240,2.4375,-12.375,0.375,0
15260,6.4375,-10.875,1.25,0
15280,7.5625,-9.9375,-0.75,0
15300,5.4375,-9.5,-2.125,0
15320,3.75,-8.875,-3,0
15340,4.6875,-8.5625,-3.25,0
15360,6.625,-9.6875,-1.9375,0
15380,6.9375,-9.6875,-2.5625,0
15400,6.75,-9,-5.4375,0
15420,4.625,-10.25,-4.625,0
15440,6,-11.3125,-2.5,0
15460,7.875,-11.0625,-3,0
15480,4.5625,-10.1875,-4,0
15500,3.1875,-7.9375,-4.3125,0
15520,2.875,-5.875,-2.1875,0
15540,1,-3.75,-0.625,0
15560,1,-2.25,-0.75,0
15580,5,-2,-2.4375,0
15600,8.5,-1.25,-3.0625,0
15620,7.125,-2.4375,-2.8125,0
15640,6.0625,-4.4375,-2.5625,0
15660,7.8125,-5.4375,-4,0
15680,9.625,-7.25,-7.75,0
15700,8.8125,-8.4375,-8.6875,0
15720,10.625,-9.9375,-7.8125,0
15740,12.5,-9.625,-9.875,0
15760,11.4375,-7.6875,-10.375,0
15780,10,-8.1875,-10.3125,0
15800,12.5625,-12.5625,-13.8125,0
15820,17.125,-13.9375,-14.8125,0
15830,18.8125,-12.0625,-13.9375,0
15850,21.6875,-10.8125,-16.9375,0
15870,21.5625,-9.1875,-19.625,0
15890,17.3125,-8.875,-19.3125,0
15910,18.6875,-6.375,-17.8125,0
15930,21.125,-6,-19.875,0
15950,23.75,-7.5625,-21.5625,0
15970,19.125,-6.3125,-18.9375,0
15990,16.1875,-3.6875,-16.875,0
16010,15.625,-4.625,-17.25,0
16030,14.8125,-2.9375,-17.4375,0
16050,13.6875,-3.75,-14.875,0
16070,8.5,-2.375,-12.3125,0
16090,10.5,0.1875,-12.3125,0
16110,6.6875,3.625,-9.5625,0
16130,4.9375,1.5625,-10.875,0
16150,7.625,1.0625,-13.6875,0
16170,9.6875,0.4375,-14.1875,0
16190,7.875,1.25,-13.4375,0
16210,6.8125,0.75,-13.75,0
16230,6.5,0.25,-16.6875,0
16250,4.4375,1.0625,-17.1875,0
16270,3.75,1.0625,-17.625,0
16290,1.75,-0.25,-17.625,0
16310,2.0625,-0.25,-16.5625,0
16330,3.875,1.4375,-15.9375,0
16350,2.0625,1.75,-17.125,0
16370,2.3125,2.5625,-18.0625,0
16390,2.625,2.6875,-15.625,0
16410,1.5,3.25,-15.9375,0
16430,-0.375,2.3125,-18.375,0
16450,-1,2.875,-18.5,0
16470,-2.625,3.5625,-16.1875,0
16490,-3.625,5.3125,-16.0625,0
16510,-4.125,7.9375,-16.5625,0
16530,-4.6875,6.5,-15.9375,0
16550,-4.6875,6.375,-16.4375,0
16570,-2.9375,7.8125,-16.0625,0
16590,-3.0625,9.625,-16.875,0
16610,-3.75,8.3125,-17.625,0
16630,-3.75,7.3125,-17.6875,0
16650,-1.3125,7.5,-18.0625,0
16670,-0.875,8.25,-18.5,0
16690,-3.4375,8.625,-17.25,0
16710,-3.9375,7.75,-18.3125,0
16730,-3.3125,8.875,-18.5,0
16740,-2.75,8.625,-17.25,0
16760,-3.3125,8,-18.0625,0
16780,-3.8125,8.5,-17.75,0
16800,-5.8125,10.125,-16.5,0
16820,-5.75,10.5625,-15.0625,0
16840,-5.625,10.0625,-15.125,0
16860,-5.5,10.8125,-14.8125,0
16880,-6.75,10.625,-14.3125,0
16900,-5.25,10.3125,-13.0625,0
16930,-5.625,9.375,-13.0625,0
16960,-3.5625,9.4375,-12.125,0
16970,-8.0625,10.4375,-13.25,0
16990,-8.25,12.25,-14.4375,0
17010,-10,13.0625,-14.8125,0
17040,-11.3125,12.25,-16,0
17060,-11.75,9.3125,-12.875,0
17070,-13.8125,8.875,-13.0625,0
17090,-11.0625,6.0625,-16.375,0
17110,-10.1875,7.125,-15.5625,0
17130,-9.5625,6.9375,-15.375,0
17140,-9.0625,8.75,-15.3125,0
17160,-8.8125,8.5625,-13.9375,0
17180,-8.5,7.6875,-15.5,0
17200,-8,9.3125,-16.125,0
17220,-7.9375,9.5,-14.75,0
17240,-7.5625,9.8125,-14.9375,0
17260,-5.375,11.5,-14.1875,0
17280,-4.375,12.0625,-14.125,0
17300,-5.5625,11.375,-13.0625,0
17320,-6.5625,11.875,-12.1875,0
17340,-5.25,14.5625,-11.3125,0
17380,-2.5,9.6875,-11.75,0
17410,-5.5625,10.625,-11.3125,0
17430,-3.5,12.8125,-11.75,0
17450,-1.9375,12.3125,-10,0
17470,-2.875,13,-7.625,0
17490,-4.125,13.125,-7.125,0
17510,-5.6875,12.625,-6.125,0
17530,-8.125,15.0625,-5.25,0
17550,-8.9375,15.3125,-5.25,0
17570,-9.0625,13.625,-5,0
17590,-8.3125,13.25,-5.3125,0
17610,-8.75,14.0625,-6.5625,0
17630,-7.625,12.75,-7.5625,0
17650,-8,12.5,-7.8125,0
17670,-5.5625,11.1875,-9.4375,0
17690,-3.875,9.625,-10.75,0
17710,-2.625,8.625,-12.9375,0
17730,-2.125,9.375,-12.6875,0
17750,-3.4375,6.375,-10.875,0
17770,-2.3125,6.5625,-12.1875,0
17790,0.125,6,-11.875,0
17810,2,5.6875,-9.125,0
17830,2,4.125,-7.8125,0
17850,1.8125,2.1875,-9.625,0
17870,0.875,1.875,-9.6875,0
17890,0.4375,2.4375,-6.625,0
17910,-1.125,1.25,-5.75,0
17930,-3.0625,1.875,-4.6875,0
17950,-5.875,3.6875,-3.875,0
17970,-6,2.8125,-3.375,0
17990,-6,1.5,-1.4375,0
18010,-7.625,0.5,0.8125,0
18030,-9,0.9375,0.9375,0
18050,-10.6875,2.375,0.5,0
18070,-11.875,2.1875,0.25,0
18090,-13.5625,1.8125,1.125,0
18110,-11.625,1.9375,3.5,0
18130,-8.8125,3.75,1.625,0
18150,-6.0625,5.875,-1,0
18170,-7.4375,6,2.1875,0
18190,-8.5625,5.125,5.4375,0
18200,-9.0625,6.875,3.375,0
18230,-7.75,10.9375,1.125,0
18250,-6.0625,11.5,1.125,0
18270,0.375,9.3125,1.6875,0
18290,1.9375,6,2.375,0
18300,1.9375,6.6875,2.3125,0
18320,-1.5625,8,2.1875,0
18340,-8.3125,10.6875,3.25,0
18360,-7.6875,7.4375,6,0
18380,-1.25,5.875,5.875,0
18400,-2.5625,5.625,6.6875,0
18420,-5.9375,8.375,6.0625,0
18440,-9.4375,10,6,0
18460,-8.9375,8.25,7.25,0
18480,-9.8125,6.25,7.5,0
18500,-7.75,5.4375,8.625,0
18520,-3.8125,5.4375,7.5625,0
18540,-3,5.9375,5.0625,0
18560,-6.125,4.625,3.1875,0
18580,-8.8125,1.5625,2.125,0
18600,-5.625,-1.25,3.125,0
18620,-1.5,-3.4375,3.5625,0
18640,2.4375,-3.6875,3.4375,0
18660,0.5,-2.8125,3.6875,0
18680,-0.9375,-0.0625,2.5,0
18700,-0.5,1,3.5,0
18720,1.375,-0.5625,5.75,0
18740,-0.125,0.625,6.1875,0
18760,-2.4375,0.9375,5.4375,0
18780,-3,-0.5625,5.0625,0
18800,-1.625,-2,5.6875,0
18820,1.25,-1.875,6.125,0
18840,0.5625,-0.875,3,0
18860,-0.375,-0.0625,3.5625,0
18880,-3.3125,0.25,5.625,0
18900,-1.8125,1.375,5.125,0
18920,-2.875,1.125,4.5625,0
18940,-2.625,1.4375,4.75,0
18960,0.1875,3.375,5.5625,0
18980,-3.1875,1.6875,7.125,0
19000,-4.75,1.625,7.8125,0
19020,-4.5,3.5,10,0
19040,-5.0625,5,11.4375,0
19060,-7.8125,3.875,12.1875,0
19080,-6.75,4.875,12.0625,0
19100,-8,5.0625,10.9375,0
19120,-9.0625,3.8125,8.5,0
19140,-2.625,3.3125,7.125,0
19160,4.8125,2.6875,6.0625,0
19180,6.5625,1.8125,3.625,0
19200,4.9375,0.6875,2.1875,0
19220,5.0625,0.3125,2.9375,0
19240,1.875,-1.125,5,0
19260,0.875,-1.5,3.125,0
19280,1.125,-2.0625,2.1875,0
19300,0.8125,-3.3125,3.6875,0
19320,1.875,-4.8125,3.5,0
19340,2.4375,-5.9375,4.6875,0
19360,3.125,-5.25,6.625,0
19380,2.4375,-5.1875,6.125,0
19400,-0.1875,-6.25,6.625,0
19420,-1,-5.875,9.625,0
19440,-1.25,-4.875,10.75,0
19460,-1.0625,-4.6875,10.6875,0
19480,-0.8125,-5,11,0
19500,-0.3125,-3.5625,10.5,0
19520,0.25,-1.375,9,0
19540,-0.875,-1.9375,8.875,0
19560,2.9375,-2.4375,7.5625,0
19580,5.3125,-3.3125,7.3125,0
19600,3.125,-4.125,7.1875,0
19620,2.1875,-2.9375,5.375,0
19640,1,-3.25,5.6875,0
19660,1.5,-3.6875,6.5625,0
19680,3.3125,-4.875,7.3125,0
19700,3.5625,-5.75,7.25,0
19720,4.25,-4.3125,6.4375,0
19740,0.125,-3.8125,6.3125,0
19760,-2.4375,-3.875,7.6875,0
19780,-0.375,-3.375,6.75,0
19800,1.0625,-3.5,8.5,0
19820,-3.75,-5.375,11.375,0
19840,-4.5625,-4.8125,9.6875,0
19860,-5.625,-5.6875,10.125,0
19880,-4.625,-6.9375,11.6875,0
19900,-1.75,-5.75,9.5625,0
19920,2.625,-5.625,9.75,0
19940,4.25,-6.6875,11.5,0
19960,6,-6.3125,10.875,0
19980,6.3125,-5.8125,9.875,0
20000,4.5,-7.9375,11.6875,0
20020,1.9375,-11.375,11,0
20040,3.0625,-11.125,10.125,0
20060,4.5625,-11.0625,10.5,0
20080,7.5,-11.3125,9.375,0
20100,9,-11.8125,7.9375,0
20120,7.0625,-12.25,9.6875,0
20140,3.875,-12.5,9.75,0
20160,4.5625,-10,8.875,0
20180,4.875,-8.625,9.4375,0
20200,5.5,-9.125,10.25,0
20220,5.8125,-7.6875,9.375,0
20240,4.4375,-5.6875,8.5,0
20260,6.9375,-6.125,8.375,0
20280,7.375,-8.5,8.6875,0
20300,6.0625,-10.125,10,0
20320,6.0625,-9.5625,9.0625,0
20340,5.5,-10.125,9.6875,0
20360,3.125,-10.75,11.3125,0
20380,4.6875,-11,10.5,0
20400,4.875,-11.5,10.9375,0
20420,4.4375,-12,13.0625,0
20440,4.125,-10.75,11.9375,0
20460,2.0625,-10.1875,10.75,0
20480,3.9375,-10.0625,11.3125,0
20500,3.6875,-9.375,11.25,0
20520,2,-8.5625,10.125,0
20540,4.6875,-8,9.4375,0
20560,6.25,-8.875,9.875,0
20580,5.75,-9.5625,9.5,0
20600,2.375,-9.25,8.625,0
20620,3.375,-9.3125,7.9375,0
20640,5.0625,-10.75,7.6875,0
20660,6.5,-12.875,8.9375,0
20680,4.3125,-14.5625,9.8125,0
20700,4.625,-13.6875,7.5625,0
20720,4.75,-13.375,7.0625,0
20740,3.3125,-14.8125,9.1875,0
20760,5.0625,-14.6875,8.125,0
20780,8.4375,-14.875,6.9375,0
20800,8.125,-16.4375,8.25,0
20820,5.125,-17.6875,9.4375,0
20840,3.8125,-17.5625,8.5625,0
20860,4.5,-17.875,8.3125,0
20880,3.8125,-19.1875,9.25,0
20900,1.875,-19.4375,8.375,0
20920,3.25,-19.25,8.3125,0
20940,6.75,-18.8125,7.8125,0
20960,5,-19.75,6.75,0
20980,4.3125,-19.75,5.6875,0
21000,7.5625,-19.6875,4.3125,0
21020,8.375,-19.0625,4.75,0
21040,7.625,-17.4375,6,0
21060,8.8125,-15.875,4.8125,0
21080,6.9375,-15.75,4.625,0
21100,4.4375,-14.75,6.5625,0
21120,3.625,-13.375,6,0
21140,2.625,-13.25,7.8125,0
21160,2.375,-11.6875,8.875,0
21180,0.3125,-9.75,7.5625,0
21200,-1.1875,-9.1875,8.75,0
21220,-1.3125,-9.4375,10.6875,0
21240,-0.5,-9.0625,9.3125,0
21260,-0.3125,-8.625,10.3125,0
21280,-0.4375,-7.6875,11.6875,0
21300,-0.9375,-6,9.125,0
21320,-0.3125,-6.25,7.5,0
21340,4.1875,-7.5,8.125,0
21360,6.625,-8.125,8.25,0
21380,4.5,-9.0625,8.0625,0
21400,3.625,-10.4375,8.625,0
21420,4.75,-10.8125,8.5625,0
21440,4.6875,-11.1875,9.4375,0
21460,2.9375,-11.25,9.625,0
21480,4.5,-12.375,8.3125,0
21500,5.875,-12.1875,7.1875,0
21520,5.5,-12,5.25,0
21540,7.9375,-12,4.5,0
21560,8.3125,-12.5,3.25,0
21580,8.1875,-11.75,1.375,0
21600,9.4375,-10.9375,1.4375,0
21620,10.25,-11.75,0.875,0
21640,11.0625,-12.875,0.625,0
21660,10.9375,-12.9375,0.75,0
21680,8.9375,-12.4375,1.3125,0
21700,9.1875,-11.5625,0.75,0
21710,7.5,-11.5625,1.0625,0
21730,5.875,-12.6875,3.6875,0
21750,6.4375,-13,3.375,0
21770,5.5625,-12.5625,2.375,0
21790,4.4375,-12.75,3.9375,0
21810,3.375,-13.8125,5.5625,0
21840,4.5,-11.9375,3,0
21880,12.1875,-14,0.625,0
21900,10.875,-14.4375,-0.875,0
21930,8.25,-13.25,0.1875,0
21950,8.6875,-14,0.6875,0
21970,7.375,-13.6875,-0.25,0
22010,9.4375,-11.75,-0.375,0
22030,8.75,-11.25,-1,0
22050,8.3125,-10.1875,0.125,0
22070,8.625,-10.125,-0.0625,0
22110,8,-8.875,-1.625,0
22130,7.3125,-7.4375,-0.9375,0
22150,9.1875,-8.875,-2.5625,0
22170,11.5,-9.6875,-4.4375,0
22190,10.5625,-7.75,-3.5625,0
22210,8.375,-8.75,-3.4375,0
22230,7.5625,-9.75,-4.4375,0
22250,6.125,-8.9375,-5.25,0
22270,5.6875,-7.75,-4.875,0
22290,6.9375,-9.875,-4.25,0
22310,8.125,-11.375,-4.25,0
22330,11.375,-12.25,-4.8125,0
22350,9,-12.9375,-3.6875,0
22370,6.125,-11.4375,-4.5625,0
22390,6.125,-10.1875,-5.25,0
22410,6.0625,-10.3125,-4.4375,0
22430,5.125,-10.0625,-2.3125,0
22450,3.8125,-8.1875,-3.4375,0
22470,5,-6.1875,-6.25,0
22490,4.25,-6,-5.0625,0
22510,2.6875,-6.8125,-3.1875,0
22530,3.6875,-6.4375,-4.3125,0
22550,4.625,-3.25,-6.5625,0
22570,3.875,-4.125,-6.4375,0
22590,1.5,-6.625,-4.4375,0
22610,2.125,-7.4375,-3.25,0
22630,5.8125,-6.375,-6.6875,0
22650,5.375,-5,-8.3125,0
22670,4.625,-2.875,-8.25,0
22690,4.4375,-5.8125,-8.5,0
22710,3.8125,-8.8125,-9.3125,0
22730,2.75,-8.25,-10.375,0
22750,3.125,-7.875,-10.5625,0
22770,2.5625,-7.625,-9.5625,0
22790,1.6875,-6.0625,-8.875,0
22810,0.5625,-5.875,-10.25,0
22830,2.875,-7.3125,-11.625,0
22850,5.125,-9.0625,-11.5625,0
22870,6.5,-7.8125,-10.1875,0
22890,4.3125,-5.5625,-9.125,0
22910,1.4375,-3.0625,-9.6875,0
22930,-0.4375,-2.625,-9.75,0
22950,-1,-2.125,-8.875,0
22970,0.4375,-1.8125,-6.4375,0
22990,0.375,1.4375,-5.8125,0
23010,0.375,0.1875,-8.6875,0
23030,0.125,-2.0625,-9.5625,0
23050,1.3125,-3,-9.4375,0
23070,-0.5,-2.375,-9.6875,0
23090,-1.5625,0.375,-10.75,0
23110,-0.0625,0.3125,-11.875,0
23130,-0.75,-3,-11.625,0
23150,0.375,-3.0625,-10.4375,0
23190,-0.0625,1.9375,-13.6875,0
23210,-2.875,-1.1875,-13.25,0
23230,-2.125,-2.5625,-13.75,0
23250,-0.375,0.0625,-14.5625,0
23270,1.8125,5.0625,-14.875,0
23290,4.5,4.75,-14.375,0
23310,4.875,5.1875,-16.875,0
23330,2,5.875,-17.125,0
23350,-2.375,2.8125,-17.0625,0
23370,-1.9375,1.6875,-16.875,0
23390,-2.0625,0.625,-17.5625,0
23410,-4.4375,1.8125,-19.4375,0
23430,-6.875,3.5,-20.5625,0
23450,-6.75,2.8125,-21.9375,0
23470,-4.5625,2.5,-21.9375,0
23490,-3.8125,0.9375,-21.5625,0
23510,-4.5,2.875,-21.9375,0
23530,-6.9375,3.8125,-19.875,0
23550,-8.875,3.5625,-18,0
23560,-8.75,3,-16.9375,0
23580,-11,2.25,-15,0
23600,-10.625,4.5,-13,0
23620,-9.875,5.5625,-11.875,0
23640,-9.875,3.9375,-11.4375,0
23660,-11.25,4.75,-12.875,0
23680,-13.1875,5.4375,-13.5,0
23700,-11.6875,5.375,-13.5625,0
23720,-9.875,6.5,-14.4375,0
23740,-8.5625,5.875,-16.0625,0
23760,-9.3125,6.875,-16.5625,0
23780,-8.3125,6.625,-16.1875,0
23800,-8.125,5,-16.75,0
23820,-7.1875,2,-17.25,0
23840,-6.375,0.1875,-16.75,0
23860,-5.75,-0.25,-16.375,0
23880,-7.1875,0,-15.9375,0
23900,-6.625,1.375,-15.5625,0
23920,-6.875,1.25,-15.125,0
23940,-7.1875,0.375,-14.1875,0
23960,-8,1.625,-12.9375,0
23980,-8.375,4.25,-13.5625,0
24000,-10.0625,6.25,-14.125,0
24020,-9.1875,5.375,-13.6875,0
24040,-7.625,5.375,-13.125,0
24060,-7,5,-14.125,0
24080,-6.875,5.1875,-13.9375,0
24100,-7.625,5.625,-13.9375,0
24120,-10,5.3125,-14.75,0
24140,-10.6875,4.125,-14.25,0
24160,-10.4375,4.8125,-13.125,0
24180,-10.3125,7.1875,-14.125,0
24200,-8.3125,7.0625,-14.0625,0
24220,-9.6875,5.875,-13.25,0
24240,-10.3125,8.5,-13.9375,0
24260,-9.125,6.875,-15,0
24280,-5.875,5.875,-14.0625,0
24300,-6.75,4.1875,-12.8125,0
24320,-7.4375,2.25,-13.0625,0
24340,-7.9375,2.375,-12.3125,0
24360,-7.3125,2.0625,-12.0625,0
24380,-6.75,2.1875,-11.6875,0
24400,-7.625,2.8125,-11.375,0
24420,-7.5,4.375,-12.5625,0
24440,-5.4375,4.6875,-14,0
24460,-5.125,4.9375,-14.4375,0
24480,-4.3125,4.625,-15.25,0
24500,-4.3125,5.4375,-15.5625,0
24520,-5.125,6.75,-16.75,0
24550,-4.25,6.5625,-15.9375,0
24570,-5.625,6.3125,-15.6875,0
24590,-5,7.8125,-17.5,0
24610,-2.5625,8.25,-17.8125,0
24640,-3.125,4.125,-16.0625,0
24660,-2.25,1.625,-15.4375,0
24680,-1.8125,1.8125,-16.375,0
24700,-2.6875,1.75,-16.3125,0
24720,-4.6875,-1.3125,-15.375,0
24740,-5.125,-3.5,-14.25,0
24760,-3.625,-3.3125,-14,0
24780,-2.8125,-2.5625,-15.8125,0
24800,-3.0625,-2.5,-14.375,0
24820,-4.4375,-3.875,-11.9375,0
24840,-3.6875,-2.8125,-12.4375,0
24860,-2.375,-0.75,-11.6875,0
24880,-3.75,0.9375,-10.25,0
24900,-3.1875,1.5,-8.6875,0
24920,-3,0.375,-7,0
24940,-2.6875,0.9375,-5.9375,0
24960,-2.5625,4.5625,-5.625,0
24980,-1.9375,5.125,-5.8125,0
25000,-1.6875,3,-5.9375,0
25020,-1.625,2.25,-5.1875,0
25040,-1.9375,1.5625,-5.25,0
25060,-2.0625,3.6875,-4.5625,0
25080,-2.25,7.875,-6.25,0
25110,-3.6875,5.75,-7,0
25130,-3.3125,4.625,-5.9375,0
25150,-1.375,5.9375,-6.5625,0
25170,-1.1875,7.5,-7.875,0
25190,-4,6.9375,-8,0
25210,-6.5,5.8125,-6.9375,0
25230,-5.3125,6,-5.75,0
25250,-5.0625,8.6875,-6.125,0
25260,-4.625,8.625,-6.4375,0
25280,-5.3125,11.0625,-5,0
25300,-4.75,10.3125,-4.5625,0
25320,-2.4375,6.75,-7.8125,0
25340,1.5,6.75,-8.6875,0
25360,-0.125,5.8125,-6.875,0
25380,-3.4375,7.25,-7.3125,0
25400,-5.0625,10.9375,-9,0
25420,-3.3125,10.3125,-8.6875,0
25440,-1.1875,6.6875,-8.0625,0
25460,0.9375,5.5,-6.5625,0
25480,-0.625,5.875,-5.6875,0
25500,-3.125,6.375,-4.5625,0
25520,-6.625,5.75,-3.0625,0
25540,-6.75,4.8125,-0.6875,0
25560,-6.1875,7.9375,-2,0
25580,-3.1875,8.4375,-2.75,0
25600,-5,2.5,0.625,0
25620,-3.6875,-1.5625,1.8125,0
25640,-2.0625,-2.875,0.625,0
25660,-1.25,-0.5625,-0.875,0
25680,-1.8125,2.375,-0.8125,0
25700,-3.9375,2.5625,2.875,0
25720,-5.3125,3.0625,3.875,0
25740,-5.5625,4.4375,3.1875,0
25760,-4.4375,8.1875,2.8125,0
25780,-4.375,5.875,4.125,0
25800,-4.75,3.3125,4.625,0
25820,-1.8125,4.1875,5.375,0
25840,-3.125,5.875,4.8125,0
25860,-5.4375,6.4375,4.75,0
25880,-5.625,5.4375,6.9375,0
25900,-7,5.6875,7.125,0
25920,-4.625,9,5.8125,0
25940,-3.25,10.0625,4.6875,0
25960,-2.25,6.1875,4.625,0
25980,-1,3.8125,4.6875,0
26000,1,2.875,3.5,0
26020,0.1875,2.375,3.5625,0
26040,-2.8125,3.25,4.3125,0
26060,-2.1875,5,5.75,0
26080,-2.8125,2.8125,6.9375,0
26100,-5.125,0.6875,7.0625,0
26120,-6.6875,0.375,8.5625,0
26140,-5.5,2.3125,9.4375,0
26160,-5.9375,5.0625,8.9375,0
26180,-7.375,5.1875,8.0625,0
26200,-9.4375,2.625,7,0
26220,-5.6875,0.75,5.8125,0
26240,-1.375,1.0625,4.8125,0
26260,0.75,2.625,6.625,0
26280,4.8125,1.75,6.5625,0
26300,5.8125,-1.3125,5.5,0
26320,3.5,-2.0625,5.5,0
26340,-0.375,-0.9375,6.4375,0
26360,-5.6875,1.0625,6.75,0
26380,-6.5625,2.4375,6.5625,0
26400,-4.9375,3.25,7.0625,0
26420,-4.75,4.8125,7.5625,0
26440,-4.125,5.25,8.4375,0
26460,-2.9375,3.8125,8.0625,0
26480,-3.375,3.0625,8.4375,0
26500,-5.375,4.125,7.75,0
26520,-6.125,5.9375,8.1875,0
26540,-7.625,5.9375,8.8125,0
26560,-7.375,5.8125,8.25,0
26580,-6.0625,6.625,8.1875,0
26600,-6.875,7.3125,8,0
26620,-7.5,7.125,7.375,0
26640,-7.75,7.75,6.875,0
26660,-7.8125,8.375,5.5,0
26680,-8.375,8.5625,5.5625,0
26700,-7.375,8.875,5.75,0
26720,-4.5,10.1875,4.625,0
26740,-4.9375,9.625,5.0625,0
26760,-8,6.875,6.0625,0
26780,-7.125,7.25,5.3125,0
26800,-6.5625,8.875,3.8125,0
26820,-7,8.1875,4.25,0
26840,-5.5625,5.3125,3.375,0
26860,-3.6875,3,3.875,0
26880,-2.9375,3.75,4.9375,0
26900,-3.1875,5.5625,3.6875,0
26910,-3.375,4.875,6.4375,0
26930,-4.375,3.1875,7.875,0
26950,-3.375,3.5,8.0625,0
26970,-3.8125,4.625,9.3125,0
26990,-5.1875,4.75,10.8125,0
27010,-5.9375,4.8125,11.0625,0
27030,-6.0625,4.5,12.5625,0
27050,-4.3125,4.3125,10.75,0
27070,-4.125,3,8.0625,0
27090,-0.6875,0.4375,8.75,0
27110,1,-0.5625,9.6875,0
27130,-0.4375,1.5,7.1875,0
27150,0.9375,1.25,5.3125,0
27170,-0.4375,-2.4375,7.25,0
27190,0.5625,-4.1875,8.5625,0
27210,1.25,-2.5625,7.9375,0
27230,-1.9375,-1.75,8.25,0
27250,-4.6875,-3.3125,8.5,0
27270,-3.3125,-5,7.9375,0
27290,0.0625,-5.75,8.375,0
27310,0.5625,-5.9375,8.9375,0
27330,1.0625,-5.0625,7.1875,0
27350,2.75,-6.1875,7.1875,0
27370,0.9375,-8.6875,7.6875,0
27390,2.625,-7.9375,6.4375,0
27410,4.875,-7.5,7.5625,0
27430,2.9375,-7.9375,8.4375,0
27450,3.3125,-6.75,8.375,0
27470,0.625,-7.125,9.5625,0
27490,-1.1875,-7.8125,12,0
27510,-2.4375,-6,13.4375,0
27530,-2.8125,-4.9375,13.625,0
27550,-2.1875,-5.1875,14.75,0
27570,-2.125,-5.625,14,0
27590,-3,-5.875,12.75,0
27610,-0.75,-4.9375,12.125,0
27630,1.6875,-4.375,11.625,0
27650,1.0625,-5.4375,10.875,0
27670,2.4375,-5.5625,11.375,0
27690,3.0625,-4.9375,11.5625,0
27710,1.6875,-4.5625,11.75,0
27730,-2.125,-5.375,12.1875,0
27750,-0.1875,-4.75,12.25,0
27770,-0.625,-4.375,11.875,0
27790,-1.25,-4.6875,12.375,0
27810,-2.3125,-5.0625,13.125,0
27830,-1.5625,-4.3125,12.0625,0
27850,-1.125,-4.3125,11.75,0
27870,-1.5625,-4.5625,11.6875,0
27890,-2.3125,-4.8125,12.25,0
27910,-1.8125,-4.625,12,0
27930,-1.25,-3.5625,11.75,0
27950,-1.375,-3.25,11.1875,0
27970,-0.3125,-4.125,10.25,0
27990,-1.25,-5.5,10.75,0
28010,1.0625,-4.3125,10.8125,0
28030,2.125,-3.4375,8.4375,0
28050,2.25,-4.9375,8.5625,0
28070,0,-6.5,8.5625,0
28090,-0.6875,-6.9375,8.4375,0
28110,0.25,-6.8125,8.9375,0
28130,0.5625,-6.25,9.6875,0
28150,-0.375,-5.8125,9.875,0
28170,-2.1875,-6.5625,10.125,0
28190,-3.125,-5.875,8.875,0
28210,-4.6875,-5.6875,10.5,0
28230,-3.0625,-4.6875,10.6875,0
28250,-2.6875,-4.9375,9.3125,0
28270,-2.125,-6.125,8.5625,0
28290,-1.9375,-6.5625,8.5625,0
28310,-0.5625,-6.25,7.1875,0
28330,0.125,-6.25,7.9375,0
28350,-1.875,-7.125,10.0625,0
28370,-1.8125,-6.125,9.5,0
28390,-0.25,-5.4375,7.875,0
28410,1.0625,-7,8.5,0
28430,0.5,-8.4375,10.6875,0
28450,-0.5,-8,10.6875,0
28470,-1.8125,-7.625,9.9375,0
28490,-0.3125,-8.4375,9.5625,0
28510,0.1875,-10.4375,9.1875,0
28530,0.9375,-11.3125,9.9375,0
28550,1.625,-10.6875,10.1875,0
28570,-1.0625,-12,10.5625,0
28590,-1.3125,-12.4375,10.3125,0
28610,-1.375,-12.375,10.0625,0
28630,0,-12.75,10.9375,0
28650,1.5,-12.0625,10.125,0
28670,0.5625,-11.5625,9.9375,0
28690,-0.75,-12.25,10.6875,0
28710,-0.8125,-12.4375,10.3125,0
28730,1.5625,-12,9.0625,0
28750,1.8125,-12.1875,9.625,0
28770,1.1875,-11.3125,8.9375,0
28790,1,-11.5,8.4375,0
28810,1.625,-12.875,10.5625,0
28830,1.5,-12.1875,11.25,0
28850,0.25,-11.75,12.5,0
28870,0.5,-11.8125,11.5625,0
28890,1.3125,-11.75,10,0
28900,2.3125,-13.0625,10.5625,0
28920,3.0625,-14.375,12.0625,0
28940,3.625,-14,11.0625,0
28960,1.375,-14.1875,9.9375,0
28980,2.5,-14.9375,9.4375,0
29000,2.9375,-16.625,10.0625,0
29020,4.875,-16.25,9.8125,0
29040,3.875,-15.9375,9.125,0
29060,1.25,-17.125,9,0
29080,2.25,-18.25,8.5,0
29100,4.0625,-17.25,9.0625,0
29120,4.5625,-16.75,9.5,0
29140,5,-15.8125,7.5625,0
29160,3.875,-15.4375,5.625,0
29180,3.625,-15.4375,6.5625,0
29200,4.8125,-15.25,5.4375,0
29220,4.8125,-15.25,3.6875,0
29240,5.5,-16.125,4.3125,0
29260,6.625,-16.875,5.4375,0
29280,5.375,-16.25,4.3125,0
29300,4.375,-14.75,3.1875,0
29320,4,-15.0625,5.6875,0
29340,5,-15.1875,6.0625,0
29360,4.9375,-15.1875,3.5625,0
29380,4.5625,-16.0625,2.625,0
29400,3.6875,-16.75,3.5,0
29420,4.1875,-16.75,2.8125,0
29440,3.6875,-16.5,0.875,0
29460,4.25,-16.4375,1.3125,0
29480,5.5,-17.0625,0.375,0
29500,8.5625,-16.75,0.6875,0
29520,7.75,-16.875,1.5,0
29540,5.75,-16.5625,0.4375,0
29560,6.9375,-16.125,-1,0
29580,9.875,-16.5,0.3125,0
29600,9.0625,-17.3125,2.25,0
29620,8.5625,-16.5625,0.875,0
29640,8.625,-15.0625,0.875,0
29660,7.4375,-13.75,2,0
29680,8,-13.6875,1.5,0
29700,7.9375,-11.9375,-0.3125,0
29720,8.625,-11.6875,-0.75,0
29740,12.625,-12.1875,-2.125,0
29760,15,-11.75,-4.8125,0
29780,14.4375,-11.5625,-4.125,0
29800,11.3125,-12.125,-5.125,0
29820,11.875,-12.1875,-8.25,0
29840,10.375,-12.3125,-5.3125,0
29860,7.6875,-14.5,-2.5,0
29880,6.6875,-13.5625,-3.75,0
29900,6.375,-11.375,-3.25,0
29920,3.125,-10.8125,-2.4375,0
29940,2.375,-11.6875,-1.5,0
29960,2.0625,-11.5,-1.75,0
29980,1.25,-11.0625,-2.6875,0
30000,2.3125,-10.75,-3.0625,0
30020,4.875,-11.5625,-3.5,0
30040,5.6875,-11.125,-3.6875,0
30060,4.9375,-9.375,-3.625,0
30080,4.1875,-9.375,-4.125,0
30100,5,-9.625,-4.5625,0
30120,5.75,-9.375,-4.625,0
30140,6.625,-9,-5.4375,0
30160,10.5625,-8.1875,-6.25,0
30180,9.6875,-5.8125,-6.125,0
30200,6.5,-3.75,-5.75,0
30220,5.125,-5.5,-6.3125,0
30240,7.375,-6.4375,-8.0625,0
30260,6.3125,-5.875,-6.9375,0
30280,5.625,-5.1875,-6.8125,0
30300,5.125,-5.25,-8.125,0
30320,4.625,-5.5,-8.125,0
30340,3.6875,-6,-7.125,0
30360,2.1875,-5,-7.0625,0
30380,1.75,-4.9375,-8.9375,0
30400,3,-4.8125,-9.4375,0
30420,1.5,-5.9375,-7.75,0
30440,1.6875,-6.875,-10.0625,0
30460,1.75,-5,-12.9375,0
30480,1.375,-4.4375,-12.25,0
30500,-1.5625,-6.9375,-10.375,0
30520,0.375,-7.9375,-10.1875,0
30540,-0.3125,-6.3125,-11.875,0
30560,-1.625,-2.9375,-13.375,0
30580,-1.5,-4.625,-12.5,0
30600,-1.5,-6.0625,-11.9375,0
30620,-2.1875,-5.375,-11.6875,0
30640,-3.6875,-4.6875,-12.625,0
30660,-3.375,-1.5625,-12.5625,0
30680,-3.625,-1.75,-12.375,0
30700,-5.125,-3.25,-13.125,0
30720,-5.3125,-0.5625,-13.1875,0
30740,-3.8125,0.1875,-13.6875,0
30760,-4.6875,-0.5625,-14.125,0
30780,-4.4375,-1.875,-14.1875,0
30800,-4.8125,0,-14.25,0
30820,-5.5,1.375,-14.9375,0
30840,-5,-0.3125,-15.1875,0
30880,-8.3125,0.5,-13.875,0
30900,-8.6875,3,-15.4375,0
30940,-7.3125,2.75,-15.6875,0
30960,-8.625,3.1875,-17.1875,0
30980,-9.9375,3.375,-18.3125,0
31000,-8.4375,2.125,-17.8125,0
31020,-7.625,0.3125,-18.125,0
31040,-6.1875,2.3125,-18.6875,0
31060,-6.25,5.4375,-18.25,0
31080,-8,4.75,-19.1875,0
31100,-7.9375,3.4375,-19.125,0
31120,-6.5,2.8125,-17.4375,0
31140,-3.875,2.875,-16.375,0
31160,-2.625,4.9375,-17.1875,0
31180,-5.125,6.375,-16.9375,0
31200,-6.1875,6.8125,-16.0625,0
31220,-2.1875,3.4375,-15.0625,0
31240,-0.9375,0.5625,-14.625,0
31260,-3.8125,0.1875,-14.5625,0
31280,-6.125,1.8125,-13.625,0
31300,-6.4375,2.25,-13.8125,0
31320,-4.5625,3.75,-14.8125,0
31340,-2.75,2.9375,-14.5,0
31360,-1.9375,3.625,-16.0625,0
31380,-2,5.5,-17.0625,0
31400,-4.625,6.75,-17.125,0
31420,-5.25,7.75,-17.0625,0
31440,-2.1875,6.5,-18.125,0
31460,0.1875,6.0625,-18.9375,0
31480,-1.875,5,-18.3125,0
31500,-4,5.4375,-18.25,0
31520,-3.8125,4.25,-17.5,0
31540,-2.9375,3.125,-17,0
31560,-2.5,2.5625,-16.375,0
31580,-2.375,2.4375,-15.75,0
31600,-3.125,4.9375,-18.5,0
31620,-2.4375,5,-20.125,0
31640,-2.4375,2.875,-19.25,0
31660,-1.875,2.8125,-19.75,0
31680,-2,2.375,-19.625,0
31700,-1.1875,1.875,-19.75,0
31720,-1.75,2.6875,-19.75,0
31740,-4.375,4.75,-19.6875,0
31760,-7,5.9375,-20.4375,0
31780,-4.8125,7.5,-19.25,0
31800,-2.5,8.5,-18.25,0
31820,-2.875,7.75,-18.75,0
31840,-3.1875,7.9375,-18.6875,0
31860,-6.3125,6.8125,-17.0625,0
31880,-7.8125,8,-15.3125,0
31900,-8.0625,8.875,-14.25,0
31920,-6.0625,9.625,-12.6875,0
31940,-6.5,8.9375,-10.8125,0
31960,-8.8125,9.875,-9.625,0
31980,-11,10.4375,-8.5625,0
32000,-10.4375,9.25,-9,0
32020,-7.125,8.1875,-9.375,0
32040,-6.25,8,-10.0625,0
32060,-7.3125,6.8125,-11.4375,0
32080,-5.3125,5.9375,-11.75,0
32100,-5.1875,6.0625,-11.75,0
32120,-6.125,4.9375,-11.6875,0
32140,-5.6875,4.1875,-11.875,0
32160,-3.9375,5.75,-12.125,0
32180,-4.5625,6.75,-11.125,0
32200,-5.9375,7.25,-10.25,0
32220,-5.75,7,-10.625,0
32240,-3.875,7.1875,-9.875,0
32260,-4.0625,7.8125,-9.625,0
32270,-3,9.625,-11.375,0
32290,-2,8.9375,-11.625,0
32310,-2.8125,6.6875,-11,0
32330,-1.1875,4.3125,-10.5,0
32350,1.3125,3.9375,-10.9375,0
32370,0.25,5.75,-10.5625,0
32390,-2.875,6.125,-7.875,0
32410,-4.25,4.75,-8.1875,0
32430,-2.1875,5.0625,-8.5,0
32450,-0.9375,4.3125,-5.0625,0
32470,-2.875,4,-3.625,0
32490,-5.5625,4.375,-5.125,0
32510,-6.1875,5.125,-4.9375,0
32530,-7.125,3.8125,-3.5625,0
32550,-7.4375,2.5,-1.8125,0
32570,-3.9375,2.3125,-1.75,0
32590,-3.75,1.8125,-1.125,0
32610,-4.4375,4.25,0.125,0
32630,-5.875,4,2.0625,0
32650,-2.3125,5,2.375,0
32670,-1.125,4.75,3.4375,0
32690,-5.4375,4.9375,4.4375,0
32710,-8.6875,7.125,4.1875,0
32730,-8.625,9.5,3.375,0
32750,-7.0625,8.6875,5.4375,0
32770,-6.6875,8.3125,6.8125,0
32790,-7.9375,9.3125,5.125,0
32810,-6.9375,10.5625,5.625,0
32830,-9.0625,9.6875,7.375,0
32850,-10.0625,9.875,5.9375,0
32870,-12.125,9.5,5.75,0
32890,-12.375,9.8125,5.375,0
32910,-9.375,10.6875,5.875,0
32930,-10.25,10.0625,4.75,0
32950,-11.375,9.375,3.9375,0
32970,-11.875,9.625,5.25,0
32990,-12.5,10.5625,4.1875,0
33010,-11.75,9.6875,2.8125,0
33030,-11.1875,6.75,5,0
33050,-12.375,4.3125,5.3125,0
33070,-14.5625,5.625,3.6875,0
33090,-14,7.5,6.0625,0
33110,-17.25,6.4375,8.5,0
33130,-19.75,7.5,8.5625,0
33150,-19.0625,10.25,7.9375,0
33170,-19.5625,7.9375,7.9375,0
33190,-16.3125,4.1875,9.75,0
33210,-12.6875,1.4375,9.625,0
33230,-10.875,2.5,7.1875,0
33250,-12.5,2.9375,6.125,0
33270,-11.8125,2.6875,6.3125,0
33290,-8.9375,0,6.375,0
33310,-5.375,0.4375,6.0625,0
33330,-6,1.25,6.6875,0
33350,-7.9375,2.9375,6.5625,0
33370,-10.375,3.875,8.625,0
33390,-13.1875,3.375,9.5,0
33410,-12.125,4.5,8.4375,0
33430,-9.9375,3.5625,10.5,0
33450,-8.125,4.6875,10.1875,0
33470,-11,5.4375,10.9375,0
33490,-13.8125,6.25,10.75,0
33510,-14.1875,6.8125,8.4375,0
33530,-13.75,7.125,8,0
33550,-13.1875,7.5,8.4375,0
33570,-10.375,7.25,6.4375,0
33590,-7.9375,6.0625,4.125,0
33610,-7.3125,3.6875,5.8125,0
33630,-5.3125,3.9375,5.9375,0
33650,-4.75,5.9375,3.9375,0
33670,-3.75,6.5625,3.4375,0
33690,-7.125,2.3125,7.875,0
33710,-7.25,1.625,11,0
33730,-5.6875,5.375,8.125,0
33750,-6.4375,7.0625,8.0625,0
33770,-6.9375,6.1875,9.75,0
33790,-10,4.8125,7.8125,0
33810,-8.0625,3.9375,4.3125,0
33830,-3.625,4.5,3.75,0
33850,-2.875,3.75,5.875,0
33870,-2.5625,3.75,5.1875,0
33890,-1.9375,5.75,4.5,0
33910,-5,7.25,4.3125,0
33930,-8.6875,8.8125,4.9375,0
33950,-10,8,5.5625,0
33970,-7.75,7.5625,5.375,0
33990,-7.3125,7.1875,5.25,0
34010,-9.5,5.9375,8.375,0
34030,-11.375,5.375,6.25,0
34050,-9.125,6.3125,4.8125,0
34070,-8.4375,5.25,6.375,0
34090,-9.3125,4.375,6.8125,0
34110,-6.4375,6.125,7.1875,0
34130,-7.9375,7.3125,5.9375,0
34150,-8.3125,6.4375,6.6875,0
34170,-7.8125,1.5625,8.3125,0
34190,-4.5,0.5625,9.9375,0
34210,-4.8125,1.375,9.875,0
34220,-8.75,1.6875,10.625,0
34240,-11.5,2.125,10.75,0
34260,-11.625,2.875,10.6875,0
34280,-12.5625,2.8125,11.625,0
34300,-11.875,2.75,12.25,0
34320,-11.875,1.1875,11.0625,0
34340,-10.8125,-1.4375,10.6875,0
34360,-10.3125,-3,11.9375,0
34380,-11.3125,-1.875,13.3125,0
34400,-14.75,-2.75,11.4375,0
34420,-15.625,-2.875,11.0625,0
34440,-11,-3.1875,10.1875,0
34460,-7.6875,-1.875,11.375,0
34480,-8,-1.0625,12.375,0
34500,-9.375,-0.125,10.8125,0
34520,-4.8125,1.625,8.6875,0
34540,-6.5,2.5,9.6875,0
34560,-9,1.9375,10.75,0
34580,-9.6875,1,10.375,0
34600,-7.875,1,8.8125,0
34620,-9.8125,1.625,9.1875,0
34640,-11.375,1.4375,8.4375,0
34660,-9.6875,1.8125,6.1875,0
34680,-4.9375,0.9375,7.1875,0
34700,-4.625,0.1875,8,0
34720,-6.0625,0.5625,7.4375,0
34740,-5,0.9375,5.25,0
34760,-3.9375,1.0625,5.9375,0
34780,-6.375,0.1875,8.0625,0
34800,-7.5,1.3125,5.6875,0
34820,-6.375,2.125,5.1875,0
34840,-6,0.625,7.875,0
34860,-3.1875,2.5625,7.25,0
34880,-1.75,2.875,6.3125,0
34900,-5.375,0.1875,9.9375,0
34920,-7.1875,-0.5,8.5,0
34940,-2.625,-0.8125,7.1875,0
34960,-1.625,-2.6875,7.25,0
34980,-1.0625,-1.875,7,0
35000,-3.625,-2.25,7.375,0
35020,-2.625,-2.9375,6.0625,0
35040,0.5,-4.3125,7,0
35060,1.25,-4.6875,7.875,0
35080,1.625,-3.6875,6.5,0
35100,3.5,-3.375,4.25,0
35120,0.0625,-5.625,5.1875,0
35140,-2.5625,-5,7.9375,0
35160,-0.1875,-0.625,8.4375,0
35180,1.4375,1.1875,8.4375,0
35200,-6,-0.8125,9.875,0
35220,-9.0625,0.75,8.3125,0
35240,-6.375,3.3125,5.75,0
35260,-0.125,0.8125,5.375,0
35280,0.75,-1.75,7.9375,0
35300,0.4375,-0.3125,6.1875,0
35320,-1.5625,-0.4375,6.0625,0
35340,-3.0625,-0.125,6.5625,0
35360,-1.8125,-0.3125,6.9375,0
35380,4.3125,-1.0625,7.625,0
35400,5.875,-2.75,9,0
35420,2.3125,-2.375,7.8125,0
35440,0.4375,-3.875,5.3125,0
35460,2.5,-8.0625,7.1875,0
35480,3.5,-8.5,6.5625,0
35500,6.25,-6.5625,2.9375,0
35520,5.4375,-7.0625,2.5625,0
35540,2.375,-8.125,4.375,0
35560,4.5625,-8.875,5.8125,0
35580,11.5,-7.1875,3,0
35600,12.4375,-7.75,2.5625,0
35620,5.3125,-10.375,5.4375,0
35640,1.625,-10.25,6.5625,0
35660,3.625,-10.1875,6.125,0
35680,5.625,-12.3125,7,0
35700,4.625,-11.8125,7.3125,0
35720,1.625,-10.0625,7.25,0
35740,1.1875,-9.5625,7.1875,0
35760,2.4375,-9.0625,8.125,0
35780,2.375,-7.5625,8.4375,0
35800,5,-7.1875,8.3125,0
35820,6.1875,-6.75,7.75,0
35840,5.4375,-7.75,8.8125,0
35860,5.5,-8.4375,8.6875,0
35880,4.0625,-8.875,6.625,0
35900,2.9375,-10.3125,6.5625,0
35920,2.5,-12.375,8.4375,0
35940,2.4375,-11.5625,8.375,0
35960,2.75,-10.3125,6.5,0
35980,2.75,-11.0625,6.0625,0
36000,2.1875,-12.8125,7.6875,0
36020,2.0625,-12.9375,8.6875,0
36040,4.1875,-11,6,0
36060,5.1875,-11.125,6,0
36080,4.1875,-12.4375,8.0625,0
36100,3.3125,-12.3125,6.6875,0
36120,5.8125,-12.75,5.25,0
36140,6.8125,-15,5.9375,0
36160,5,-17.25,6.25,0
36180,2.625,-18.1875,5.4375,0
36200,5.25,-18.4375,5.4375,0
36220,6.25,-18.8125,5.75,0
36240,6.6875,-20.1875,7.4375,0
36260,5.5,-20.3125,8.1875,0
36280,3.5625,-19.4375,6.875,0
36300,2.9375,-20.1875,6,0
36320,2,-21.9375,7.1875,0
36340,4.375,-22.5,6.875,0
36360,5.5,-22.8125,6,0
36380,7,-22.5625,6.25,0
36400,5.125,-22.4375,5.625,0
36420,4.5625,-21.9375,5.5625,0
36440,5.625,-21.3125,6.1875,0
36460,7.8125,-20.5625,5.125,0
36480,6.5,-20.625,5,0
36500,5,-20,5.5625,0
36520,2.875,-19.5625,5.875,0
36540,5.75,-18.5,6.75,0
36560,5.1875,-17.75,6.4375,0
36580,5.5625,-18,5.125,0
36600,5.3125,-17.8125,4.5,0
36620,3.75,-17.25,4.1875,0
36640,3.25,-17,3.6875,0
36660,5,-16.875,4.0625,0
36680,5.75,-16,3.5625,0
36700,5.375,-14.6875,3.25,0
36720,1.75,-14.0625,4.125,0
36740,2,-13.625,3.375,0
36760,3,-13,3.75,0
36780,2.4375,-11.9375,2.5625,0
36800,2.4375,-11.4375,1.25,0
36820,2.5625,-11.9375,2.125,0
36840,4,-11.5625,2.6875,0
36860,3.9375,-11.1875,1.6875,0
36880,2.125,-11.0625,2.875,0
36900,2.125,-10.375,3.25,0
36920,2.25,-10.0625,1.875,0
36940,2.6875,-10,2,0
36960,3,-10.3125,2.25,0
36980,4.1875,-10.5,2.375,0
37000,3.6875,-11.1875,3.375,0
37020,3.625,-11.4375,2.3125,0
37040,3.3125,-11.1875,1.3125,0
37060,-1.9375,-12.3125,4.6875,0
37080,-5.1875,-11.9375,4.6875,0
37100,-1.4375,-11.125,4.875,0
37120,2.3125,-11.1875,5.125,0
37140,2.4375,-11.5625,4.375,0
37160,2.6875,-11.9375,4.25,0
37180,4.8125,-12.0625,2.1875,0
37200,6.8125,-12.375,0.625,0
37220,5.9375,-13.25,1.75,0
37240,5.4375,-14.0625,1,0
37260,7.3125,-15.125,0.4375,0
37280,8.5625,-15.1875,1.3125,0
37300,4.5625,-14.9375,2.0625,0
37320,0.9375,-15.375,0.875,0
37340,3.25,-16.0625,2.5,0
37360,5.25,-16.3125,2,0
37380,4.6875,-16.8125,0.3125,0
37400,4.75,-17.1875,0.625,0
37420,4.9375,-17.125,-1.5,0
37440,5.125,-17.0625,-2.4375,0
37460,6.5625,-17.875,-2.5,0
37480,7.6875,-18.0625,-1.8125,0
37500,8.125,-17.3125,-2.5625,0
37520,5.8125,-16.5625,-3.5,0
37540,5.6875,-15.0625,-2,0
37560,3.625,-15.125,-0.8125,0
37580,3.875,-13.6875,-2.4375,0
37600,5.9375,-12.4375,-5.5,0
37620,6.125,-13.375,-4,0
37630,9.125,-12.1875,-2.875,0
37650,10.375,-11.0625,-4.75,0
37670,11.8125,-12.4375,-6.125,0
37690,11.25,-14.25,-7.1875,0
37710,9.375,-14.75,-6.6875,0
37730,8.25,-13.3125,-6.9375,0
37750,10.75,-12.8125,-10.375,0
37770,12.8125,-14.125,-9.8125,0
37790,9.0625,-14.625,-7.4375,0
37810,9.625,-14.75,-10.9375,0
37830,12.8125,-14.125,-11.8125,0
37850,9.875,-14.4375,-8.375,0
37870,4.375,-13.25,-8.125,0
37890,3.5625,-10.5,-9.625,0
37910,8.625,-10.375,-10.375,0
37930,9.75,-13.375,-9,0
37950,10.4375,-16.8125,-5.9375,0
37970,10,-15.5625,-7.1875,0
37990,6.6875,-13.5625,-8.25,0
38010,2.9375,-13.5625,-6.4375,0
38030,0.9375,-13.3125,-4.25,0
38050,5,-11.4375,-5.75,0
38070,8.625,-10.75,-7.75,0
38090,6.625,-11.8125,-3.875,0
38110,5.3125,-13.125,-2,0
38130,5.1875,-11.8125,-6,0
38150,8.4375,-10.3125,-7.375,0
38170,7.375,-12,-5.625,0
38190,6.5,-13.6875,-5.75,0
38210,6.8125,-12.4375,-8.375,0
38230,5.25,-11.4375,-8.9375,0
38250,4.875,-12.4375,-9.375,0
38270,4.1875,-13.1875,-10.25,0
38290,6.8125,-11.5,-10.75,0
38310,5.8125,-9.0625,-11.9375,0
38330,4.75,-9.25,-14.125,0
38350,4.375,-10.1875,-17.4375,0
38370,6.5625,-10.875,-17.375,0
38390,6.375,-10.1875,-16.625,0
38410,5.375,-6.875,-18.75,0
38430,6.5625,-6.6875,-19.1875,0
38450,5.25,-9.4375,-18.5625,0
38470,5,-9.625,-17.75,0
38490,5.75,-6.3125,-16.0625,0
38510,4.5,-4.5,-13.5625,0
38530,1.4375,-4.0625,-11.8125,0
38550,-0.3125,-2.1875,-10.375,0
38570,0.625,2.8125,-10.5,0
38590,3.0625,4.0625,-10.6875,0
38610,4.8125,3.4375,-11.9375,0
38630,5.125,2.875,-13.3125,0
38650,5.125,2,-14.0625,0
38670,7.125,1.3125,-13.4375,0
38690,7.875,0.8125,-14.1875,0
38710,6.6875,0.5,-14.375,0
38730,6,-0.25,-14.125,0
38750,5.9375,0.5625,-15.0625,0
38770,6.8125,-0.4375,-14,0
38790,6.5,-2.8125,-13.125,0
38810,4.125,-3.5625,-11.875,0
38830,5.5625,0.3125,-13.875,2001
38850,7.25,2.8125,-12.75,0
38870,2.5625,-1.625,-10.25,0
38890,0.9375,-5.9375,-9.8125,0
38910,1.8125,-8.3125,-8.4375,0
38930,2.0625,-8.9375,-6.5,0
38950,0.3125,-9.5625,-5.0625,0
38970,-3.6875,-10,-2.875,0
38990,-4.4375,-7.125,-2.375,0
39010,-2.5,-4.25,-2.9375,0
39030,-0.0625,-5,-0.1875,0
39050,-0.4375,-5.625,1.3125,0
39070,-1.6875,-4.375,1.4375,0
39090,-2.5625,-2.375,2.8125,0
39110,-3.9375,-0.625,2.625,0
39130,-2.8125,2.125,2.0625,0
39150,-2.1875,4,2.5,0
39170,-1.4375,6,1.375,0
39190,-2.125,9.375,1.75,0
39210,-8.6875,10.875,3.5,0
39230,-14.8125,12.5,3.8125,0
39250,-17.625,11.4375,3.4375,0
39270,-11.4375,13,4.25,0
39290,-6.25,16.5625,4.625,0
39310,-7.375,19.75,4.5,0
39330,-9.875,21.8125,4.75,0
39350,-9,23.4375,6.5,0
39370,-7.875,27.4375,6.375,0
39390,-8.625,35.8125,5.0625,0
39410,-4.625,39.3125,6.3125,0
39430,-2.1875,39.6875,10.25,0
39450,-1.3125,45,12.75,0
39470,-3.3125,53.6875,14.375,0
39490,-2.125,54.4375,19.875,0
39510,1.9375,54.6875,27.5625,0
39530,4.6875,59.25,34.375,0
39550,5,66.6875,41.3125,0
39570,2.75,69.0625,45.4375,0
39580,8.5,63.5,43.5,0
39610,20.4375,67.1875,46.125,0
39620,28.8125,76.0625,54.9375,0
39640,20.25,74.1875,59.4375,0
39660,28.25,68.25,49.5625,0
39680,38.125,72,46.25,0
39700,37.0625,71.6875,61.1875,0
39720,22.125,67.5625,60.875,0
39740,31.375,68.875,41.625,0
39760,42.8125,64.9375,35.3125,0
39780,43.6875,57.375,44.4375,0
39800,34.1875,46.4375,49,0
39820,26.5,41.6875,43.0625,0
39840,22.9375,38.5,37.4375,0
39860,17.5625,34.75,38.8125,0
39880,11.9375,28.5,43.6875,0
39900,2.25,23.9375,45.5,0
39920,-3.25,23,41.0625,0
39940,-6.375,21,36.875,0
39960,-5.5,14.9375,37.25,0
39980,-3,10.25,36.375,0
40000,-0.625,7.625,34.4375,0
40020,2.3125,6.625,29.25,0
40040,1.125,8.5,24.3125,0
40060,1.25,8.125,21.25,0
40080,-2.25,5.4375,24.5,0
40100,-2.0625,5.8125,24.3125,0
40120,-2.6875,8.9375,20.625,0
40140,-2.75,9.4375,15,0
40160,-1.3125,6.375,13.4375,0
40180,-1.4375,2.625,14.9375,0
40200,-1.5625,3.5625,11.25,0
40220,-0.875,5.75,7.5625,0
40240,1,3.4375,6.3125,0
40260,-0.125,-1.3125,8.5625,0
40280,1.625,-3.3125,8.3125,0
40300,1.5625,-1.8125,4.1875,0
40320,-2.3125,-0.8125,3.9375,0
40340,-5.75,-1.75,5.3125,0
40360,-3.8125,-1.75,3.75,0
40380,-1.125,-1.5,0.4375,0
40400,1.625,-2,-0.9375,0
40420,0.6875,-3.6875,1.3125,0
40440,0.9375,-3.4375,0.8125,0
40460,-2.625,-1.6875,-1.375,0
40480,-3.6875,-1.125,-1.375,0
40500,-1.25,-1.6875,-1.25,0
40520,-0.5,-3.1875,-1,0
40540,-0.8125,-4.125,-0.0625,0
40560,-0.0625,-3.8125,0.25,0
40580,-0.3125,-2.375,1.4375,0
40600,-3.125,-0.4375,0.125,0
40620,-2.625,-1.6875,0.0625,0
40640,-1.5625,-1.9375,2.75,0
40660,-1.4375,-1.8125,4.25,0
40680,-1.5,-1.875,0.75,0
40700,-0.375,-0.4375,-1.125,0
40720,-1.625,-1.1875,0.625,0
40740,4.375,-4.4375,-0.3125,0
40760,6.5625,-5.75,-2.4375,0
40780,8.25,-6.1875,-2.8125,0
40800,6.875,-6.0625,-1.5,0
40820,4.6875,-6.5625,-1.8125,0
40840,3.375,-7.1875,-2.625,0
40860,3.125,-7.625,0.5,0
40880,2.5625,-7.0625,2.75,0
40900,2,-6.375,2.9375,0
40920,0.375,-5.625,2.875,0
40940,0.875,-5.875,0.75,0
40960,0.8125,-6.625,1.5,0
40980,4.1875,-6.375,3.3125,0
41000,5.875,-6.625,0.0625,0
41020,6.5625,-6.5625,-3,0
41040,3.5625,-7.375,-2.0625,0
41060,3.875,-9.125,-0.625,0
41080,6.375,-9.5,-0.5625,0
41100,7.4375,-8.875,-2.125,0
41120,6.4375,-8.125,-1.5625,0
41140,3.75,-7.9375,0.6875,0
41160,2.6875,-7.5625,0.375,0
41180,3,-7.875,-1.6875,0
41200,4,-8.5625,-0.5,0
41220,4.25,-8.125,0.6875,0
41240,2.125,-7.5625,-2.8125,0
41260,3.1875,-7.4375,-5.8125,0
41280,3,-7.875,-2.875,0
41300,5.0625,-8.1875,0.4375,0
41320,5.125,-7.4375,0.875,0
41340,1.6875,-5.125,-0.4375,0
41360,-1.5625,-2.375,-0.125,0
41380,-3,-0.6875,-0.9375,0
41400,-3.6875,2.625,1.0625,0
41420,-3.375,5.625,3,0
41440,-4.0625,7,1.6875,0
41460,-6.6875,8.5,-1.1875,0
41480,-7.1875,8.4375,-0.4375,0
41500,-14.8125,6.8125,0.5625,0
41520,-14.1875,10,0.625,0
41540,-19.3125,14.25,0.9375,0
41560,-23.625,15.5625,-0.6875,0
41580,-27.4375,12.25,-1.8125,0
41600,-29.0625,7.75,-0.375,0
41620,-20.8125,4,3.8125,0
41640,-13.125,2.75,7.25,0
41660,-7.875,3.8125,5.5625,0
41680,-9.0625,4.3125,2.25,0
41700,-11.5625,4.3125,3.625,0
41720,-13.125,4.3125,5.125,0
41740,-12.875,4.375,4.875,0
41760,-6.375,4.125,3.5,0
41780,-0.1875,3.0625,2.6875,0
41800,-0.625,2.375,3.1875,0
41820,0.0625,2.0625,0.5,0
41840,-0.1875,1.875,-2.875,0
41860,-0.6875,-0.25,-0.75,0
41880,1.6875,-1.5625,-0.1875,0
41900,1.8125,-2.1875,-0.8125,0
41920,-1.375,-1.3125,-0.8125,0
41940,-4.75,-1.1875,-0.125,0
41960,-5,-0.9375,0.1875,0
41980,-1.1875,-2.25,-0.8125,0
42000,-0.375,-3.3125,1,0
42020,1.5625,-3.125,3.5625,0
42040,-0.1875,-1.25,2.75,0
42060,-5.125,-0.25,1.0625,0
42080,-9.1875,0.6875,-1.1875,0
42100,-7.5625,0.5625,-1.6875,0
42120,-4,-1.1875,0.6875,0
42140,1.875,-2.6875,0.75,0
42160,7,-2.0625,-2.6875,0
42180,5,-3.125,-1.0625,0
42200,3.6875,-2.875,2.875,0
42220,2.9375,-2.3125,3.375,0
42240,2.4375,-3.6875,0.625,0
42260,3.125,-3.1875,1.0625,0
42280,4.1875,-4.5,2.375,0
42300,4.6875,-5.8125,1.4375,0
42320,5,-6.875,2.1875,0
42340,4.875,-7.375,3.1875,0
42360,6.1875,-6.125,0.5625,0
42380,6.6875,-6.3125,1.375,0
42400,4,-7.8125,3.875,0
42420,2.6875,-8.1875,4,0
42440,2.4375,-7.0625,2.875,0
42460,1.3125,-5.125,2.375,0
42480,1.5625,-5.875,0.1875,0
42500,1.9375,-6.6875,0.25,0
42520,3.375,-6.1875,2.0625,0
42540,3.9375,-5.3125,-1.125,0
42560,2.3125,-5.75,-5.625,0
42580,2.4375,-5.5,-3.8125,0
42600,3.375,-5.25,-3.6875,0
42620,4.1875,-5.625,-4.625,0
42640,5.125,-6.3125,-4.5625,0
42660,6,-6.9375,-4.75,0
42680,4.75,-5.25,-4.625,0
42700,4.0625,-3.25,-4.125,0
42720,2.4375,-2.625,-4.5,0
42740,0.5,-0.8125,-4.1875,0
42760,-0.5,1.9375,-2.875,0
42780,-0.125,4.875,-3.0625,0
42800,-5.125,8.3125,-3.25,0
42820,-9.1875,9.25,-2.5625,0
42840,-12.8125,7.9375,-6.9375,0
42860,-13.375,7.6875,-6.875,0
42880,-22.8125,4,-1,0
42900,-29.875,2.4375,2,0
42920,-40.8125,3,1.6875,0
42940,-47.9375,2.5,4.125,0
42960,-53.9375,1.9375,6.25,0
42980,-49.25,-2.1875,5.1875,0
43000,-43.4375,-5.375,8.625,0
43020,-40.1875,-6.875,11.4375,0
43030,-31.1875,-6.75,9.1875,2000
43050,-26.9375,-3.9375,9.0625,0
43070,-25.875,-0.8125,7.375,0
43090,-26.0625,-0.0625,7.8125,0
43110,-20.125,-0.8125,7.9375,0
43130,-14.25,0.6875,8.4375,0
43150,-14.8125,1.6875,4.4375,0
43170,-14.25,1.375,2.4375,0
43190,-15.625,-0.0625,2.125,0
43210,-11.8125,-0.125,4.4375,0
43230,-5.875,1.375,5.125,0
43250,-0.8125,0.625,1.1875,0
43270,-3.875,-0.75,4.1875,0
43290,-5.125,0.8125,6.25,0
43310,-2.6875,2.8125,2.0625,0
43330,1.125,4.125,3.25,0
43350,0.6875,3.9375,4.125,0
43370,-1.0625,4.75,1.75,0
43390,1.9375,6.5,0.5625,0
43410,7.5625,7.125,-0.25,0
43430,10.8125,6.3125,-2.1875,0
43450,12.125,6.9375,-3.0625,0
43470,8.375,7.5625,-4.75,0
43500,4.6875,7.125,-3.4375,0
43520,7.5625,7.125,-2.875,0
43540,5.5,6.9375,-5.75,0
43560,6.5,6.75,-7.8125,0
43580,6.875,6.8125,-5.6875,0
43600,8.0625,6.4375,-2.75,0
43620,6.625,7.375,-3.3125,0
43640,5.125,7.9375,-3.75,0
43660,0.25,6.875,-0.0625,0
43680,0.3125,5.1875,-0.75,0
43700,4.375,4.375,-6.0625,0
43720,10.25,2.375,-5.8125,0
43740,14,-0.8125,-3.25,0
43760,11.8125,-2,-1.8125,0
43780,13.125,-1.125,-4.5625,0
43800,11.25,-1.375,-5.125,0
43820,11.125,-2.625,-4.375,0
43840,12.875,-3.625,-4.3125,0
43860,14.4375,-3.3125,-4.4375,0
43880,10.9375,-3.75,-5,0
43900,8,-2.9375,-4.9375,0
43920,6.5,-2.25,-8.3125,0
43940,12.0625,-3.75,-8.375,0
43960,13.25,-5.875,-8.25,0
43980,13.6875,-5.4375,-8.8125,0
44000,13.3125,-3.5,-9.25,0
44020,10.6875,-1.375,-8.625,0
44040,11.1875,1.5,-6.0625,0
44060,11.1875,4.625,-4.5,0
44080,14,7.8125,-4.5625,0
44100,12.875,11.9375,-5.9375,0
44120,11.6875,15,-7.1875,0
44140,13.9375,15,-7.9375,0
44160,13,15.8125,-7.5625,0
44180,13.1875,17.8125,-6.875,0
44200,10.625,17.375,-6.1875,0
44220,12.3125,15.8125,-4.3125,0
44240,17,15.6875,-2.3125,0
44260,14.0625,12.5,-0.1875,0
44280,12.25,9.1875,0.4375,0
44300,12.3125,8,-0.25,0
44320,10.5,7.8125,0.0625,0
44340,8.8125,5.375,0.125,0
44360,7.875,2.8125,1.0625,0
44380,9.9375,2.3125,0.8125,0
44400,11.0625,2.25,1.375,0
44420,6.6875,0.625,2.375,0
44440,2.4375,-0.1875,1.4375,0
44460,2.125,-0.4375,1.125,0
44480,5.125,-1.8125,1,0
44500,6.25,-2.3125,0.5625,0
44520,6.6875,-0.6875,-0.5,0
44540,3,-0.25,-1.0625,0
44560,0.125,0.1875,1.125,0
44580,-1.375,-1.5625,2.4375,0
44600,-1,-3.375,1.5625,0
44620,-0.75,-5,3.9375,0
44640,-1.5625,-6.8125,5.8125,0
44660,-1,-9.125,6.6875,0
44680,-1.375,-10.4375,8.625,0
44700,-4.375,-10.3125,11.125,0
44720,-7,-11.4375,10,0
44740,-7.25,-14.4375,8.625,0
44760,-4.75,-18.25,9.625,0
44780,0.3125,-19.125,8.0625,0
44800,2.6875,-17.3125,7,0
44820,3.6875,-16.1875,5.6875,0
44840,2.125,-14.25,5.1875,0
44860,2.6875,-13,5.125,0
44880,3.0625,-12.8125,3.25,0
44900,4.125,-12.375,-0.4375,0
44920,4.4375,-10.1875,0.5625,0
44940,2.5,-9.3125,2.1875,0
44960,1.1875,-9.875,1.5625,0
44980,1.0625,-9.3125,-0.5625,0
44990,5.4375,-7.625,-1.5625,0
45010,5.625,-6.0625,-0.5625,0
45030,3.375,-5.25,-1.1875,0
45050,3.5625,-5.625,-2.875,0
45070,3.75,-5,-3.375,0
45090,4.5,-4.5625,-3.9375,0
45110,4.3125,-3.875,-3.25,0
45130,3.0625,-2.6875,-2.8125,0
45150,2.75,-2.625,-3.625,0
45170,2.5625,-3.75,-2.75,0
45190,2.25,-4.3125,-2.6875,0
45210,1.1875,-3.1875,-2.6875,0
45230,0.3125,-2.4375,-1.5625,0
45250,3.125,-2.375,0.375,0
45270,7.375,-2.9375,0.625,0
45290,6.5,-2.6875,-1.4375,0
45310,2.4375,-2.375,-2.8125,0
45330,1.5625,-2.5,-3.375,0
45350,3.75,-3,-1.9375,0
45370,5.25,-4.0625,-0.8125,0
45390,4.3125,-4.625,-1.125,0
45410,1,-4.4375,-1.8125,0
45430,0.4375,-4.75,-2.3125,0
45450,-0.8125,-5,-0.75,0
45470,0.9375,-4.8125,0.0625,0
45490,2.1875,-4.4375,-1.625,0
45510,3.6875,-3.5,-4.125,0
45530,4.875,-4.5625,-5,0
45550,4.4375,-4.5625,-4.5625,0
45570,5,-4.5625,-3.9375,0
45590,5.6875,-4.9375,-3.75,0
45610,6.0625,-6,-2.125,0
45630,4.1875,-5,-0.9375,0
45650,1.5625,-3.5,-1.1875,0
45670,0.5,-3.5625,-1.25,0
45690,-0.5625,-4.75,-1.3125,0
45710,-0.625,-4.25,0.0625,0
45730,-0.875,-3,-1.75,0
45750,-0.25,-2.625,-5.0625,0
45770,0.4375,-3.8125,-6.875,0
45790,1.625,-5.5625,-3.625,0
45810,3.0625,-4.8125,-3.375,0
45830,4.625,-4.0625,-7.6875,0
45850,5.625,-4.75,-8.375,0
45870,3.25,-4.375,-6.125,0
45890,0.25,-4.25,-7.375,0
45910,-2.3125,-3.0625,-7.5,0
45930,-1.5,-4.125,-6.375,0
45950,-0.4375,-2.625,-4.5625,0
45970,1.3125,-1.5,-3.5625,0
45990,0.8125,-0.8125,-3.125,0
46010,-1.25,0.875,-3.8125,0
46030,-0.5625,1.25,-5.1875,0
46050,1.5,0.75,-6.3125,0
46070,4.25,-0.25,-6.5625,0
46090,3.5,-0.75,-6.625,0
46110,2.4375,-0.25,-7.625,0
46130,0,-0.1875,-8.3125,0
46150,-1.375,-1.1875,-9.125,0
46170,1.125,-0.5,-9.25,0
46190,0.3125,1,-8.6875,0
46210,-2.25,1.9375,-8.3125,0
46230,-2.25,0.25,-9.125,0
46250,-0.1875,-0.5625,-9.4375,0
46270,0.375,0.5625,-8,0
46290,-0.9375,0.9375,-7.25,0
46310,-2.0625,0.375,-8.375,0
46330,-2.8125,-0.25,-8.9375,0
46350,-2.3125,0.125,-8.1875,0
46370,-3,-0.75,-6.5625,0
46390,-3,-1.1875,-7.8125,0
46410,-3.3125,-0.5625,-8.9375,0
46430,-4.0625,0,-9.1875,0
46450,-3.25,0.75,-9.3125,0
46470,-1,-0.0625,-9.75,0
46490,-0.25,-0.8125,-10.5625,0
46510,-0.1875,-1,-11.125,0
46530,-2,-0.6875,-11.0625,0
46550,-2.375,-0.1875,-10.5,0
46570,-1.9375,-1.1875,-10.4375,0
46590,-1.9375,-1.5625,-9.9375,0
46610,-1.5625,-0.25,-9.9375,0
46630,-1.6875,0.375,-9.6875,0
46650,-1.0625,0.625,-10.4375,0
46670,-1.375,0.25,-10.1875,0
46690,-1.75,1.5,-10.25,0
46710,-2.8125,1.8125,-10.625,0
46730,-2.125,3,-11.6875,0
46750,-1.5,3.3125,-11,0
46770,-1.875,4.25,-11.3125,0
46790,-2.3125,4.4375,-10.75,0
46810,-3.1875,3.875,-10.625,0
46830,-3.3125,3.4375,-11.5,0
46850,-3.6875,4.375,-12,0
46870,-2.5625,4.625,-10.6875,0
46890,-3.125,4.875,-11.1875,0
46910,-4.125,5.625,-12.4375,0
46930,-5,5.4375,-12.625,0
46950,-5.0625,5.1875,-12.25,0
46970,-4.0625,4.25,-12.625,0
46990,-3.3125,5.6875,-14.625,0
47010,-2.875,6.4375,-15.5,0
47030,-3.875,4.6875,-15.375,0
47050,-4.25,3.875,-15.1875,0
47070,-3.375,4.3125,-15.125,0
47090,-4.4375,3.625,-15.75,0
47110,-4.4375,2.75,-16.125,0
47130,-4.25,2.8125,-16.75,0
47150,-5.1875,3.3125,-17.1875,0
47170,-6.1875,4.0625,-17.0625,0
47190,-6.25,3.25,-16.75,0
47210,-5.125,2.875,-17.25,0
47230,-4.625,2.4375,-16.4375,0
47250,-4.9375,3.125,-15.8125,0
47270,-5.8125,4.25,-16.5625,0
47290,-6.125,3.9375,-16.1875,0
47310,-4.8125,3,-16.125,0
47330,-3,3.625,-15.4375,0
47350,-3.3125,3.4375,-14.25,0
47370,-4.75,3.3125,-14.0625,0
47390,-4.875,3.8125,-13.0625,0
47410,-5.1875,4.75,-12.25,0
47430,-4.6875,5.4375,-10.8125,0
47450,-3.875,5.375,-9.5625,0
47470,-4.8125,5.4375,-9.1875,0
47490,-5.6875,5.875,-9.0625,0
47510,-6.4375,5.75,-9.0625,0
47530,-4.3125,5.75,-9.5,0
47550,-2,5.625,-9.5625,0
47570,-2.375,5.5,-9.75,0
47590,-3.6875,5.8125,-10.0625,0
47610,-4.5,6.25,-10.125,0
47630,-4.1875,6.6875,-10.125,0
47650,-2.1875,6.375,-9.5,0
47670,-2.6875,6.625,-8.625,0
47690,-3.625,6.875,-9.25,0
47710,-3.8125,6.9375,-9.8125,0
47730,-3.375,5.9375,-10.625,0
47750,-2.6875,5.9375,-11.4375,0
47770,-2.75,5,-12.5,0
47790,-3.125,3.875,-13.4375,0
47810,-4,3.3125,-13.1875,0
47830,-3.625,3.3125,-12.5625,0
47850,-3.75,4.25,-13.5625,0
47870,-4.625,4.6875,-14.75,0
47890,-4.5,4.625,-13.875,0
47910,-3.375,4.5,-13.3125,0
47930,-3.5625,4.75,-13.8125,0
47950,-4.0625,4.75,-14.5,0
47970,-4.5625,4.5,-13.5625,0
47980,-4,4.5,-12.5,0
48000,-3.1875,3.625,-12.375,0
48020,-2.9375,3.4375,-12.5,0
48040,-3.9375,3.625,-11.9375,0
48060,-5.3125,3.6875,-10.875,0
48070,-6.0625,4.125,-10.9375,0
48090,-5.875,4.9375,-11.875,0
48110,-4.25,5.1875,-11.6875,0
48130,-2.8125,4.875,-11.5,0
48150,-2.625,5.3125,-12.375,0
48170,-2.9375,5.25,-12.75,0
48190,-4,4.875,-12.0625,0
48210,-3.3125,5.125,-12.375,0
48230,-2.4375,4.4375,-12.1875,0
48250,-3.1875,3.125,-11.6875,0
48270,-3.25,2.9375,-12,0
48290,-2.5625,3.1875,-12.25,0
48310,-3.3125,2.5,-12.625,0
48330,-3.625,1.6875,-12.0625,0
48350,-5.375,1.1875,-10.8125,0
48370,-4.9375,2.3125,-11.8125,0
48380,-5.125,2.375,-12.0625,0
48400,-4.5,2.9375,-13,0
48420,-3.8125,3.6875,-12.75,0
48440,-5.125,5.0625,-11.8125,0
48460,-4.125,5.4375,-12.125,0
48480,-3.1875,5.4375,-12.375,0
48500,-4.0625,6.5,-12.375,0
48520,-3.8125,6.5,-12.6875,0
48540,-1.5,6,-12.625,0
48560,-1,5,-10.9375,0
48580,-2,3.9375,-10.75,0
48600,-2.1875,3.9375,-11.3125,0
48620,-2.9375,5.3125,-10,0
48640,-4.1875,3.0625,-8,0
48660,-2.9375,0.875,-8.875,0
48680,-0.4375,2.625,-8.8125,0
48700,-1.75,3.375,-6.6875,0
48720,-3.0625,4,-7.1875,0
48740,-4.3125,3.6875,-7.3125,0
48760,-4.5625,3,-6.5625,0
48780,-2.25,2.1875,-6.8125,0
48800,-2.0625,3.1875,-7.625,0
48820,-2.4375,4.8125,-7.3125,0
48840,-3,4.4375,-7.75,0
48860,-1.25,2.625,-8.1875,0
48880,-0.75,1.625,-7.9375,0
48900,-1.625,2.8125,-7.75,0
48920,-2.8125,3.75,-7.5625,0
48940,-2.9375,2.625,-7.3125,0
48960,-2.4375,2.1875,-7.0625,0
48980,-2.625,2.875,-7.1875,0
49000,-1.6875,3.625,-6.5,0
49020,-1.5,5.4375,-5.9375,0
49040,-1,5.0625,-5.125,0
49060,-1.3125,3.9375,-4.375,0
49080,-1.1875,4.125,-4.875,0
49100,0.5,4.375,-5.3125,0
49120,-0.5,4.375,-3.625,0
49140,-1.625,5.4375,-2.0625,0
49160,-0.625,5.6875,-2.25,0
49180,0.0625,6.375,-2.625,0
49200,-1.3125,5.1875,-3.3125,0
49220,-0.875,5,-2.9375,0
49240,-1,6.5,-2.6875,0
49260,-1.625,5.625,-2.875,0
49280,-1.6875,4.3125,-4.1875,0
49300,-1.0625,4.5,-3.8125,0
49320,-1.0625,5.6875,-4,0
49340,-0.0625,5.6875,-4.1875,0
49360,1.125,3.5625,-3.375,0
49380,0.375,2.1875,-2.6875,0
49400,-1.375,3.125,-4.4375,0
49420,-0.1875,4,-6.3125,0
49440,2.5,4.1875,-5.375,0
49460,3.125,2.8125,-4.875,0
49480,2.0625,0.8125,-5.125,0
49500,4.0625,0.75,-5.8125,0
49520,2.25,0.875,-5.375,0
49540,-0.375,1.875,-2.875,0
49560,-2.4375,2.625,-2.3125,0
49580,-2.3125,2.625,-2.5625,0
49600,-2.5,2.125,-2,0
49620,-2.25,1.9375,0,0
49640,-5.125,3.1875,-0.3125,0
49660,-4.875,2.9375,-0.75,0
49680,-4.875,1.625,-0.1875,0
49700,-4.375,0.9375,0.125,0
49720,-2.875,1.75,0.5625,0
49740,-3.875,2.4375,-0.1875,0
49760,-4.8125,2,-0.3125,0
49780,-5.3125,0.5625,-0.0625,0
49800,-4.125,0.375,-0.375,0
49820,-4.625,1.4375,0.4375,0
49840,-5.1875,1.75,1.4375,0
49860,-6,0.5625,1.375,0
49880,-6,-1,1.9375,0
49900,-5.5,-0.5625,1.625,0
49920,-5.25,0.75,0.875,0
49940,-5.875,0.875,1.6875,0
49960,-6.375,-0.625,0.9375,0
49980,-5.125,-0.5,0.375,0
50000,-3.4375,0.9375,2.0625,0
50020,-4.3125,2.375,1.4375,0
50040,-3.375,2.875,-0.125,0
50060,-3.5625,2,0.5,0
50080,-3.6875,1.6875,1.75,0
50100,-1.9375,3.625,1.6875,0
50120,-1.375,4.5625,1.8125,0
50140,-2.9375,4.5,2.5,0
50160,-5.375,2.8125,3.4375,0
50180,-4.25,2.5625,2.625,0
50200,-3.1875,3.75,2.25,0
50220,-2.8125,5.0625,4.5,0
50240,-3.5,4.875,3.6875,0
50260,-3.125,4.25,2.0625,0
50280,-2.8125,3.1875,2.375,0
50300,-1.0625,2.8125,1.75,0
50320,-0.1875,4.0625,1.25,0
50340,-2.8125,3.8125,1.8125,0
50360,-3.9375,2.875,2.1875,0
50370,-1.8125,3.5,0.625,0
50390,-0.6875,3.375,2,0
50410,-1.625,2.5625,3.25,0
50430,-2,2.375,3.0625,0
50450,-2.25,2.4375,3.125,0
50470,-2.625,3.3125,3.25,0
50490,-3.4375,3.5,2.9375,0
50510,-1.4375,3.25,3.25,0
50530,-1.5625,2.25,4.625,0
50550,-1.1875,2.3125,4.4375,0
50570,-0.875,3.8125,3.9375,0
50590,-1.375,4.5,3.6875,0
50610,-0.1875,3.5625,4.125,0
50630,0,2.625,4.3125,0
50650,-0.5625,2.9375,3.8125,0
50670,-2.1875,2.8125,3.25,0
50690,-2.75,2.3125,3.25,0
50710,-1.6875,0.625,4.3125,0
50730,-0.1875,-0.5625,4.5,0
50750,-0.5625,-0.25,2.125,0
50770,-1.0625,-0.0625,0.8125,0
50790,-1.4375,-1.8125,1.3125,0
50810,-0.875,-2.5,2.125,0
50830,-0.8125,-2.5,2.6875,0
50850,0.75,-1.6875,1.6875,0
50870,-2,-2.0625,2.125,0
50890,-2.8125,-2.4375,3.8125,0
50910,-2.4375,-2.0625,3.875,0
50930,-0.8125,-0.625,3.875,0
50950,-0.8125,-0.5,5.3125,0
50970,-2.5625,-1.6875,5.6875,0
50990,-2.6875,-2.6875,5.25,0
51010,-1.4375,-2.0625,6,0
51030,-2,-1.3125,6.5,0
51050,-2.625,-0.4375,6.1875,0
51070,-2,-0.5,5.375,0
51090,-1.5,-0.625,4.3125,0
51110,-0.3125,-0.875,5.5625,0
51130,-0.6875,-0.5,5.3125,0
51150,0.8125,0.25,5.3125,0
51170,-1.625,-0.375,6.125,0
51190,-3.25,-1.0625,6.3125,0
51210,-2.375,-0.25,6.5,0
51230,-2.5625,-0.0625,7.1875,0
51250,-0.8125,0.6875,6.25,0
51270,-1.5,0.5625,6.5,0
51290,-3.125,-1.1875,7.6875,0
51310,-2.8125,-0.5,6.8125,0
51330,-2,0.8125,7,0
51350,-3.9375,1.375,7.3125,0
51370,-4.1875,0.875,6.1875,0
51390,-3.375,-0.625,6.125,0
51410,-2.125,-1.625,7.125,0
51430,-1.8125,-1.375,7.6875,0
51450,-0.625,0.375,8.5,0
51470,1.3125,-1.0625,8.625,0
51490,2.3125,-5.125,8.5625,0
51510,2.8125,-4.4375,8.9375,0
51530,-1.875,-2.4375,8.9375,0
51550,-5.4375,-1.875,8,0
51570,-7.1875,-3.5,8.125,0
51590,-5.375,-4.9375,8,0
51610,-2.8125,-4.8125,7.5,0
51630,-0.8125,-3.9375,8.875,0
51650,-2.9375,-4,10.25,0
51670,-5.375,-3.4375,10.375,0
51690,-8.1875,-3.6875,9.4375,0
51710,-5.6875,-2.8125,9.125,0
51730,-3.4375,-3.0625,9.3125,0
51750,-2.5,-3.75,9.5,0
51770,-3.1875,-4.1875,10.125,0
51790,-2.3125,-3.4375,8.625,0
51810,-1.625,-2.125,8.625,0
51830,-4.625,-3.125,9,0
51850,-5.8125,-4.75,9.6875,0
51870,-1.3125,-4,8.3125,0
51890,1.125,-3.625,8.25,0
51910,-0.8125,-5.8125,9.625,0
51930,-1.625,-6.0625,8.5,0
51950,-1.5625,-5,7.625,0
51970,-0.875,-4.625,9.625,0
51990,-1.8125,-4.5625,9.625,0
52010,-0.3125,-2.8125,7.8125,0
52030,3.8125,-3.3125,9,0
52050,4.5625,-6.9375,10.375,0
52070,4.5,-8.125,9.4375,0
52090,1.125,-7.875,8.75,0
52110,-1.125,-6.8125,9.5,0
52130,-4.0625,-6.1875,10.1875,0
52150,-5.375,-4.8125,9.6875,0
52170,-5.375,-2.1875,9.875,0
52190,-3.125,-2.125,10.5,0
52210,-0.625,-3.5625,10.625,0
52230,1.375,-3.1875,9.625,0
52250,-2.375,-3.75,9,0
52270,-4.25,-1.875,8.1875,0
52290,-4.1875,-0.8125,8.8125,0
52310,-2.9375,-1.1875,9.5625,0
52330,-1.5,-0.75,9.5,0
52350,-1.875,0.1875,9.8125,0
52370,-2.4375,1,8.3125,0
52390,-3.0625,0.75,7.375,0
52410,-5.5,-0.4375,8.125,0
52430,-3.4375,-0.4375,7.5,0
52450,0.1875,0.3125,5.8125,0
52470,-0.6875,-1.3125,5.25,0
52490,1.25,-1.6875,6.375,0
52510,1.125,-1.75,6.875,0
52530,1.6875,-2.4375,5.8125,0
52550,0.375,-3.9375,7,0
52570,-0.4375,-4.0625,6.5625,0
52590,-1.875,-3.8125,5.875,0
52610,-1.0625,-4.6875,6.875,0
52630,1.0625,-5.4375,7.8125,0
52650,2,-6.0625,6.25,0
52670,1.625,-6.1875,6,0
52690,-2.0625,-6.4375,6.875,0
52710,-0.6875,-6.5,6.375,0
52730,0.3125,-6.9375,6,0
52750,0.75,-8.25,6.875,0
52770,-0.5625,-8.5,8.125,0
52790,-1.1875,-7.5625,7.9375,0
52810,-2.375,-6.875,8.25,0
52830,-3.25,-7.375,8.1875,0
52850,-4.1875,-8.5,9.6875,0
52870,-4.6875,-8.25,10.1875,0
52890,-3.375,-6.1875,8.8125,0
52910,-2.25,-6.0625,10,0
52930,-3.1875,-6,10.1875,0
52950,-4,-5.125,9.1875,0
52970,-2.8125,-5.1875,10.125,0
52990,-0.4375,-5,9.1875,0
53010,-0.25,-5.3125,8.3125,0
53030,-1.3125,-6.5625,9.1875,0
53050,-0.125,-6.25,8.5625,0
53070,0.5,-5.8125,8.75,0
53090,-1,-6.8125,10.5625,0
53110,-2.4375,-6.625,9.0625,0
53130,-1.8125,-6,8.5625,0
53150,-1,-6.625,8.9375,0
53170,-2.1875,-6.4375,9.4375,0
53190,-0.5,-5.6875,7.1875,0
53200,-0.9375,-8.1875,8.25,0
53220,0.3125,-9.8125,9.25,0
53240,-0.9375,-8.25,8,0
53260,-3.625,-8.125,7.75,0
53280,-1.9375,-8.0625,7.375,0
53300,-1.4375,-9.0625,7.875,0
53320,0.125,-9.0625,9.8125,0
53340,0.5625,-8,8.9375,0
53360,0.875,-7.3125,7.3125,0
53380,-1,-8.75,8.4375,0
53400,-2.375,-8.4375,8.4375,0
53420,-2.75,-7.125,6.625,0
53440,-2,-7.625,7.625,0
53460,-2.875,-8,9.1875,0
53480,-1.4375,-6.5,8.6875,0
53500,-3.0625,-6.375,9.125,0
53520,-4.0625,-6.25,8.8125,0
53540,-2.8125,-6.625,8,0
53560,0.25,-6.75,7.75,0
53580,1.6875,-7.8125,8.3125,0
53600,-0.0625,-8.5625,7.9375,0
53620,-1.0625,-9.1875,8.5,0
53640,-0.375,-8.75,7.625,0
53660,-0.1875,-8.8125,8.1875,0
53680,1.375,-9.1875,9.25,0
53700,-0.4375,-9.25,9.3125,0
53720,1.1875,-9,9.1875,0
53730,0.0625,-8.6875,9.625,0
53750,-1.125,-7.6875,9.25,0
53770,0.625,-7.8125,8.75,0
53790,3.625,-8.375,9.0625,0
53810,3.625,-8.25,8.875,0
53830,0.0625,-9.1875,9.1875,0
53850,-0.3125,-9.1875,9,0
53870,-0.6875,-8.9375,8.25,0
53890,-0.9375,-10,8.4375,0
53910,-0.5,-10.875,9.875,0
53930,2,-10.3125,8.4375,0
53950,1.1875,-10.375,7.125,0
53970,-2.125,-11.125,8.6875,0
53990,-1.0625,-10.5625,5.4375,0
54010,4.0625,-10.375,3,0
54060,4,-11.625,4,0
54080,0.75,-12.625,5.4375,0
54100,0.8125,-12.8125,4.5625,0
54120,4.6875,-11.625,3.3125,0
54140,5.3125,-11.875,5.5,0
54160,2.4375,-12.4375,6.875,0
54180,4.75,-10.25,4.125,0
54200,4.3125,-12.6875,7.6875,0
54220,2.75,-12.0625,5.8125,0
54240,4.3125,-10.3125,3.6875,0
54260,5,-11,5.8125,0
54280,4.1875,-11.0625,6.75,0
54300,3.3125,-9.5625,3.5625,0
54320,2.875,-10.5625,4.25,0
54340,4.8125,-11.6875,5.5,0
54360,5.75,-11.375,5.125,0
54380,5.5625,-11.0625,3.75,0
54400,5.3125,-11.75,3.5,0
54420,5.5,-12.9375,4.125,0
54440,5.0625,-13.3125,4.875,0
54460,5.125,-12.9375,5.875,0
54480,4.125,-12.0625,4.375,0
54500,3.8125,-11.9375,3.5625,0
54520,-0.6875,-12.375,4.75,0
54540,0.25,-11.6875,0.9375,0
54560,6.3125,-11.4375,0.5625,0
54580,10.1875,-11.1875,1.3125,0
54600,9,-10.5625,-0.8125,0
54620,6.25,-11.4375,-1.25,0
54640,5.625,-12.3125,-0.5,0
54660,5,-12.875,0.8125,0
54680,5.5,-12.5625,1.5,0
54700,8.1875,-11.625,2.0625,0
54720,6.5,-11.0625,2.6875,0
54740,2.8125,-10.625,2.875,0
54760,2.4375,-11.1875,3.5,0
54780,6.125,-12.1875,4.1875,0
54800,9.25,-11.5,4.4375,0
54820,9.125,-10.125,5.125,0
54840,7,-9.5625,5.375,0
54860,7.125,-9.5625,5,0
54880,5.875,-10.375,4.75,0
54900,5.9375,-9.3125,4.625,0
54920,7.375,-9.25,4.625,0
54940,7.875,-10.5625,4.3125,0
54960,7.625,-10.4375,4.3125,0
54980,3.3125,-11,4.625,0
55000,6.8125,-10.6875,3.0625,0
55020,8.25,-10.5,2.9375,0
55040,3.5,-11.8125,5,0
55060,3.5625,-11.625,2,0
55080,4.8125,-10.1875,0.0625,0
55100,1.25,-10.6875,3.25,0
55120,1.1875,-10,2.4375,0
55140,2.4375,-9.3125,-1.75,0
55160,5.0625,-9.3125,-2.3125,0
55180,4.4375,-9.4375,-0.625,0
55200,2.875,-8.8125,-0.625,0
55240,6.75,-7,-3.625,0
55260,5.0625,-7.375,-2.625,0
55280,3.5625,-7.25,-4.5,0
55300,5.8125,-7.0625,-5.25,0
55320,8.0625,-7.625,-3.5,0
55340,7.5,-6.375,-3.8125,0
55360,5.3125,-4.3125,-4.3125,0
55380,3.0625,-5.25,-4.875,0
55400,4.75,-5.9375,-4,0
55420,5.4375,-3.8125,-4.5,0
55440,5.5,-3.75,-5.5,0
55460,8.0625,-8,-6.875,0
55480,9.25,-10.125,-7.125,0
55500,6.5625,-8.5625,-6.375,0
55520,9.6875,-8.5,-6.8125,0
55540,7.25,-8.6875,-9.0625,0
55560,7.125,-7.75,-8.3125,0
55580,6,-7.6875,-5.8125,0
55600,6.25,-7.6875,-6.9375,0
55620,5.3125,-6.4375,-7.125,0
55630,3.6875,-3.875,-5.375,0
55650,5.4375,-3.5,-5.25,0
55660,5.1875,-4.0625,-6.625,0
55680,4.375,-3.8125,-7.1875,0
55710,5,-2.25,-8.5625,0
55730,5.5,-0.9375,-8.5625,0
55750,4.5625,-0.125,-8.375,0
55770,3.3125,-1,-9.25,0
55770,3.75,-2.0625,-10.125,0
55790,4.1875,-2.4375,-7.875,0
55800,2.1875,-2.875,-7.9375,0
55840,3.3125,-3.125,-9.5,0
55870,-1.875,0.8125,-12.875,0
55900,-3,1.1875,-10.0625,0
55920,0.125,0.1875,-11.75,0
55950,-0.75,-2.4375,-9.875,0
55970,0.0625,-0.3125,-11.0625,0
55990,2.125,-0.1875,-10.5,0
56020,-0.625,-1.25,-6.25,0
56040,-1.5625,-0.375,-5.5,0
56060,-1.4375,2.5,-6.25,0
56080,-0.125,2.3125,-6.875,0
56100,0.9375,-1.1875,-6,0
56110,1.25,-3.6875,-5.3125,0
56140,0,0.3125,-8.4375,0
56160,-1.3125,-0.75,-7.1875,0
56180,-0.0625,-2.8125,-7.8125,0
56200,0.4375,-3.4375,-9,0
56210,-0.1875,-1.6875,-9.75,0
56230,-1.5625,-1.0625,-10.0625,0
56250,-3.5625,0,-10.75,0
56270,-5.3125,1.0625,-11.75,0
56290,-3.125,2.8125,-12.125,0
56310,-1.25,3.8125,-11.8125,0
56330,-2.8125,5.125,-12.875,0
56350,-4.9375,5.6875,-13.375,0
56370,-5.3125,6.8125,-12.9375,0
56390,-4.75,7.4375,-12.1875,0
56410,-4.625,8,-13.25,0
56430,-3.6875,7.5,-13.0625,0
56450,-3.625,5.9375,-13.8125,0
56470,-4.875,7.4375,-13.625,0
56490,-7.75,7.875,-13.4375,0
56510,-8.3125,7.5625,-15,0
56530,-5.6875,5.5,-15.6875,0
56550,-5.0625,4.75,-15,0
56570,-2.375,4.75,-14.625,0
56590,-4.75,6.125,-15.25,0
56610,-7.625,6.75,-15,0
56630,-8.5,7.5625,-13,0
56650,-2.25,7.625,-11.625,0
56670,-2.4375,9.125,-11.9375,0
56690,-3.3125,9.3125,-13.4375,0
56710,-4.75,5.5,-14.125,0
56730,-4.4375,3.625,-15.0625,0
56750,-1.8125,2.3125,-14.1875,0
56770,-0.1875,-0.8125,-13.375,0
56790,-0.4375,-1.1875,-12.8125,0
56810,-2.3125,-0.25,-13.0625,0
56830,-4.6875,1.25,-12.3125,0
56850,-6.375,2.4375,-12.125,0
56870,-5,1.4375,-12.875,0
56890,-1.625,1.5625,-13.6875,0
56910,0.625,1.25,-13.5,0
56930,-0.375,3.25,-14.8125,0
56950,-4.5,3.5,-14.8125,0
56970,-4.25,1.375,-15.6875,0
56990,-0.8125,1,-15.0625,0
57010,-1.4375,1.8125,-13.0625,0
57030,-5.0625,5.6875,-13.5,0
57050,-7.4375,5.5625,-14,0
57070,-6.5625,4.6875,-14.125,0
57090,-5.0625,4,-12,0
57110,-6.625,4.4375,-13.5625,0
57130,-6.6875,5.8125,-14.8125,0
57150,-6.6875,5.0625,-15.375,0
57170,-6.625,4.5625,-16.6875,0
57190,-4.5,5.625,-16.25,0
57210,-2.3125,7.625,-15.75,0
57230,-4.0625,7.375,-16.1875,0
57250,-6.75,5.375,-16.25,0
57270,-6.8125,4.875,-14.6875,0
57290,-4.875,5.0625,-15.0625,0
57310,-5.125,4.375,-15,0
57330,-8.0625,3.625,-14.75,0
57350,-7,5.4375,-14.9375,0
57370,-6.25,5.9375,-14.5625,0
57390,-4.75,6.3125,-15.9375,0
57410,-3.3125,6.125,-15.1875,0
57430,-3.5,4.3125,-14.4375,0
57450,-2.875,1.1875,-13.6875,0
57470,-1.8125,0.125,-12.375,0
57490,-2.6875,0.4375,-12.6875,0
57510,-2.8125,0.375,-14.0625,0
57530,-3.1875,0.5625,-12.375,0
57550,-3.625,2.9375,-11,0
57570,-2.25,3.125,-11.75,0
57590,-1,2.5,-12.5625,0
57610,-1.5625,2.6875,-11.75,0
57630,-5.4375,2,-9.5625,0
57650,-6.625,3,-11.25,0
57670,-3.25,3.5,-13.4375,0
57690,-2.25,3,-12.875,0
57710,-4.4375,2.1875,-12.125,0
57730,-3.875,2.0625,-12.1875,0
57750,-3.9375,4.375,-12.5625,0
57770,-3.6875,4.5,-14.125,0
57790,-4.3125,3.6875,-13.9375,0
57810,-4.5625,4.125,-12.125,0
57830,-5.125,5.4375,-11.5625,0
57850,-5.0625,6.625,-12.1875,0
57870,-4.0625,6.6875,-11.6875,0
57890,-5.5625,6.3125,-9.5625,0
57910,-4.9375,6.0625,-8.8125,0
57930,-5.375,6.25,-9.375,0
57950,-6,6.25,-8.875,0
57970,-4.25,6.3125,-7.5625,0
57990,-4.6875,7.375,-9,0
58010,-4.25,7.4375,-10.4375,0
58030,-5.375,4.875,-9.75,0
58050,-3.4375,4.0625,-9.6875,0
58070,-4,4.4375,-10.1875,0
58090,-3.0625,4.375,-10.3125,0
58110,-3.625,4.625,-10.3125,0
58130,-4.375,4.75,-10.0625,0
58140,-2.375,6.375,-9.9375,0
58160,-1.875,6.375,-8.625,0
58180,-1.375,6.875,-8.5,0
58200,-0.1875,6.1875,-8.5,0
58220,-2.8125,5.375,-6.75,0
58240,-5.375,5.6875,-5.8125,0
58260,-4.75,6.8125,-6.5625,0
58280,-0.9375,5.3125,-6.6875,0
58300,-0.5,3.8125,-4.875,0
58320,-2.75,4.75,-3.25,0
58340,1.4375,5.9375,-4.3125,0
58360,5.0625,5.375,-3.3125,0
58380,0.375,2.9375,0,0
58400,-1,5.1875,1.3125,0
58420,-3.0625,7.9375,-1.8125,0
58440,-3.5,6.8125,-3.3125,0
58460,-4,3.6875,-0.5625,0
58480,-3,2.8125,0,0
58500,-2.4375,4.375,-2.5625,0
58520,-5.375,3.0625,-2.5625,0
58540,-6.6875,1,-0.875,0
58560,-4.4375,0.8125,-2.6875,0
58580,-2.4375,3.125,-3.875,0
58600,-3.75,3.375,-1.5625,0
58620,-3.3125,4.0625,0.8125,0
58640,-7.9375,2.6875,2.1875,0
58660,-9.5,1.0625,-0.125,0
58680,-6.1875,1.5625,1.25,0
58700,-6.0625,3.125,3.3125,0
58720,-6.25,5,1.3125,0
58740,-3.625,4.6875,-1.4375,0
58760,-3.6875,3.3125,-2.25,0
58780,-3.25,2.75,-0.5,0
58800,-2.25,3.9375,-0.9375,0
58820,-1.9375,4.9375,-1.9375,0
58840,-5.8125,4.25,-1.5625,0
58850,-6.125,3.5,-2.4375,0
58870,-4.25,5.375,-3.3125,0
58890,-2.5625,7.5,0.375,0
58910,-8.375,6.9375,2.4375,0
58930,-13.875,7.375,1.0625,0
58950,-17.5,7,3.375,0
58970,-18.5,5.0625,4.3125,0
58990,-20.125,3.9375,4,0
59010,-17.125,4.375,0.875,0
59030,-13.375,5.625,-1.5,0
59050,-5.875,6,-0.25,0
59070,-2.8125,5.25,1.125,0
59090,-0.1875,5.6875,0.75,0
59110,0.0625,5.4375,0.8125,0
59130,1.875,5.5,2.1875,0
59150,-0.5625,5.5625,4.6875,0
59170,-8.5,4.75,7.375,0
59190,-10.75,5.1875,5.8125,0
59210,-11.4375,5.6875,6.0625,0
59230,-10.125,3.25,9,0
59250,-9.0625,1.875,11.4375,0
59270,-6.5625,2.375,11.125,0
59290,-6.125,3.125,7.375,0
59310,-10,1.625,7.5625,0
59330,-14.3125,-1.3125,6.625,0
59350,-11.125,-0.5625,3.3125,0
59370,-6.875,0.1875,4,0
59390,-6.0625,-0.375,3.4375,0
59410,-3.1875,0.875,0.8125,0
59430,-3.3125,-0.5,-0.4375,0
59450,-5.125,-2.1875,0.9375,0
59470,-4.8125,-1.8125,2.5625,0
59490,-6.8125,-0.6875,2.75,0
59510,-8.375,0.0625,4.1875,0
59530,-9.3125,0,7.125,0
59550,-10.8125,-0.25,7.625,0
59570,-9,1.6875,7.125,0
59590,-12.1875,1.875,8.3125,0
59610,-14.8125,0.75,10.125,0
59630,-13.9375,0.5,11,0
59650,-10.125,2.625,8.4375,0
59670,-9.1875,1.875,8.125,0
59690,-8,1.4375,9.5,0
59710,-9.1875,4,10.3125,0
59730,-10.875,4.9375,8.5625,0
59750,-9.9375,3.1875,11.0625,0
59770,-6.125,4.5625,14.375,0
59790,-6.9375,5.9375,11.8125,0
59810,-6.4375,4.6875,7.875,0
59830,-8,1.75,8.4375,0
59850,-6.8125,-0.25,10.25,0
59870,-6.125,0.0625,10.375,0
59890,-5.75,1.5625,9.0625,0
59910,-5.5625,1.1875,9.125,0
59930,-6.8125,0.4375,8.8125,0
59950,-8.5,0.3125,8.6875,0
59970,-7.3125,0.125,8.4375,0
59990,-6.3125,0.5625,7.375,0
60010,-8,0.5625,7.25,0
60030,-7.75,2.0625,8.5625,0
60050,-4.6875,3.125,8.75,0
60070,-1.375,1.3125,9.8125,0
60090,-1,-0.4375,10.5625,0
60110,-6.6875,1.75,7.8125,0
60130,-10.625,3,6.5,0
60150,-11.375,1.3125,6.875,0
60170,-6.0625,0.1875,6.625,0
60190,-3.1875,-0.0625,5.4375,0
60210,-3.5625,1.75,5.8125,0
60230,-10.1875,1.3125,7.75,0
60250,-14.75,1.4375,8.9375,0
60270,-15.875,1.0625,9.8125,0
60290,-14.3125,-0.0625,11.875,0
60310,-8,-0.125,10.125,0
60330,-4.875,0.4375,8.9375,0
60350,-8,-0.3125,11.3125,0
60370,-13.75,0.0625,11.375,0
60390,-12.25,0.8125,10.75,0
60410,-11.6875,0.875,11.0625,0
60430,-13.1875,1.3125,11.25,0
60450,-15.25,0.1875,10.875,0
60470,-10.125,-0.1875,9.4375,0
60490,-5.25,-1.75,10.8125,0
60510,-10.9375,-2.625,11.125,0
60530,-12.4375,-2,8.5,0
60550,-9.0625,-2.875,7.75,0
60570,-11.0625,-5.4375,8.0625,0
60590,-8,-3.5625,8.0625,0
60610,-4.6875,-1,8,0
60630,-4.125,-0.3125,8.6875,0
60650,-7.0625,-0.3125,10.5,0
60670,-7.0625,0.8125,10.3125,0
60690,-5.8125,0.875,8.875,0
60710,-5.8125,-2.4375,10,0
60730,-4.6875,-2.375,8.25,0
60750,-2.875,-1.4375,7.25,0
60770,-2.125,-1.5625,7.5625,0
60790,-2,-1.75,6.875,0
60810,0.625,-1.75,8.125,0
60820,-1.6875,-2.4375,8.125,0
60840,-3.5,-2.3125,5.375,0
60860,-0.75,-2.4375,5.9375,0
60880,-2.5,-2.375,6.5,0
60900,-2.75,-2.25,9.0625,0
60920,-5.4375,-3.0625,9.4375,0
60940,-4.25,-1.625,9.1875,0
60960,-0.4375,-1.8125,8.875,0
60980,0.875,-2.1875,8,0
61000,0.625,-3.75,8,0
61020,4.6875,-3.625,6.0625,0
61040,3.0625,-4.125,5.6875,0
61060,-0.625,-4.5,6.5625,0
61080,-1,-5.25,5.9375,0
61100,1.375,-5.4375,5.625,0
61120,2.9375,-7.1875,7.875,0
61140,1.75,-6.1875,7.8125,0
61160,-3.5,-5.3125,7,0
61180,-4.5625,-6.8125,7.4375,0
61200,-1.4375,-6.3125,6.75,0
61220,1.875,-5.375,6.25,0
61240,-0.25,-5.875,6.3125,0
61260,1.5625,-6.125,4.5625,0
61280,2.1875,-7.625,5,0
61300,2.9375,-6.875,5.875,0
61320,-0.25,-5,5.5625,0
61340,-4.375,-5.75,6.3125,0
61360,-2.625,-5.4375,7.5,0
61370,-0.25,-5.1875,6.4375,0
61390,0.25,-6.0625,6.25,0
61410,0.75,-6.75,6.5625,0
61430,1.25,-7.375,6.1875,0
61450,0.6875,-7.0625,7.375,0
61470,-0.875,-6.0625,7.0625,0
61490,-1.9375,-6.5,8.25,0
61510,0.875,-6.25,7.875,0
61530,1.5,-5.9375,7.625,0
61550,-1.9375,-6.875,8.8125,0
61570,-4.9375,-8.0625,8.5625,0
61590,-1.875,-6.375,7.25,0
61610,2,-6.375,6.1875,0
61630,2.1875,-8.8125,7.9375,0
61650,3.25,-8.375,7.75,0
61670,1.0625,-7.5625,5.1875,0
61690,1.25,-6.8125,4.875,0
61710,2.4375,-7.75,5.375,0
61730,2.25,-9.25,6.125,0
61750,2.625,-9.1875,5.5625,0
61770,3.9375,-8.0625,4.9375,0
61790,2.125,-6.9375,5.8125,0
61810,-0.875,-7.875,5.875,0
61830,-0.625,-7.6875,4.75,0
61850,4.375,-7.75,4.5625,0
61870,5,-10.125,7.6875,0
61890,3.125,-8.1875,7.8125,0
61910,-1.125,-7.3125,7.1875,0
61930,-1.6875,-8.25,7.875,0
61950,-1.625,-9,7.9375,0
61970,-0.75,-8.6875,7.6875,0
61990,2.5,-8.9375,7.75,0
62010,1.1875,-10.1875,10.1875,0
62030,-1.5625,-8.4375,9.4375,0
62050,-5.375,-7.5,8.3125,0
62070,-4.875,-8.1875,9.25,0
62090,-0.4375,-8.25,8.5625,0
62110,6.1875,-8.25,7,0
62130,7.75,-8.4375,6.8125,0
62150,3.8125,-9.5625,8.1875,0
62170,0.4375,-10.9375,7.6875,0
62190,1.1875,-11.5,8.0625,0
62210,4.75,-11.125,7.6875,0
62230,2.5,-12.875,9.4375,0
62250,-0.625,-13.125,9.25,0
62270,-1.4375,-12.5,6.9375,0
62290,0.625,-13.625,7.6875,0
62310,2.0625,-15.5,8.3125,0
62330,3.75,-15.25,5.75,0
62350,4.8125,-15.375,5.3125,0
62370,5,-15.5625,6.875,0
62390,4.9375,-15.25,5.625,0
62410,5.5,-15.25,5.375,0
62430,5.0625,-15.9375,6.1875,0
62450,6.25,-15.6875,4.875,0
62470,6.875,-16,3.625,0
62490,9.75,-15.8125,3.9375,0
62510,9.6875,-16.375,4.5625,0
62530,8.3125,-16.6875,4.625,0
62550,7,-17.8125,5.1875,0
62570,10.125,-17.25,4.375,0
62590,10.875,-17.9375,4.25,0
62610,5.25,-19.3125,6.625,0
62630,3.875,-16.3125,4.5625,0
62650,5.5625,-15.375,1.5625,0
62670,5.8125,-17.625,3.1875,0
62690,5,-19.375,4.6875,0
62710,7.625,-18.6875,3.1875,0
62730,11.0625,-18.125,1.6875,0
62750,11.25,-19.375,2.1875,0
62770,8.25,-19.3125,3.0625,0
62790,6.75,-17.625,2.4375,0
62810,6.1875,-16.5625,3.1875,0
62830,7.0625,-15.9375,4.25,0
62850,7.3125,-15.4375,5.0625,0
62870,5.6875,-14.6875,2.8125,0
62890,4.125,-14.625,1.375,0
62910,4.125,-16.4375,1.125,0
62930,9.125,-16.125,0.625,0
62950,9,-15.6875,0.9375,0
62970,5.375,-16.4375,2.5625,0
62990,6,-17.3125,3,0
63010,2.8125,-16.875,2,0
63030,3.625,-16,0.9375,0
63050,4.3125,-15.75,1.875,0
63070,4.4375,-15.1875,0.625,0
63090,5.375,-14.5,1.3125,0
63110,5.375,-14.6875,1.875,0
63130,4.6875,-13.625,1.625,0
63150,5.375,-11.8125,1.9375,0
63170,3.1875,-9.625,0.375,0
63190,1.1875,-8.125,0.1875,0
63210,2.25,-8,0.0625,0
63230,4.125,-8.1875,0.3125,0
63250,6.8125,-9,1.1875,0
63270,7.0625,-9.875,-0.25,0
63290,7.125,-10.5,-1.625,0
63310,8.4375,-10.875,-1.75,0
63330,9.4375,-12.0625,-1.0625,0
63350,7.5625,-12.0625,-1.5,0
63370,7,-11.4375,-1,0
63390,7.25,-11.625,-2.6875,0
63410,7.125,-12.75,-1.8125,0
63430,6.4375,-11.9375,0.125,0
63450,7.125,-11.1875,-0.625,0
63470,7.9375,-12.8125,-2,0
63490,8.625,-15.5,-0.9375,0
63510,7,-15.9375,0.9375,0
63530,7.375,-14.25,-1,0
63550,7.125,-14.4375,-2.25,0
63570,5.8125,-16.5625,-2.5625,0
63590,7.4375,-17.25,-2.125,0
63610,9.875,-16.4375,-3.6875,0
63630,10.625,-15,-5.25,0
63650,9.4375,-13.5,-4.8125,0
63670,7.6875,-13.3125,-4.125,0
63690,9.5625,-14.625,-5.125,0
63710,13.3125,-15.1875,-4.1875,0
63730,11.8125,-14.0625,-2.25,0
63750,8,-13.0625,-1.875,0
63770,9.375,-12.875,-2.25,0
63790,11.0625,-15,-2,0
63810,8.1875,-16.3125,-2.3125,0
63830,8.75,-14.9375,-1.75,0
63850,9.6875,-14.25,-3.8125,0
63870,9.375,-13.4375,-6.25,0
63890,7.8125,-14,-4.1875,0
63910,7.25,-13.375,-3.5,0
63930,8.3125,-12.25,-5.8125,0
63950,9.625,-10.8125,-5.9375,0
63970,5.4375,-11.25,-4.9375,0
63990,2.875,-9.875,-5,0
64010,1.125,-7.0625,-6.25,0
64030,4.5625,-5.8125,-5.125,0
64050,4.3125,-7.625,-5.8125,0
64070,4.625,-9,-6.4375,0
64090,2.1875,-9.5,-6.125,0
64110,2.375,-6.8125,-7.25,0
64130,3.5,-8.1875,-9.25,0
64150,2.5,-10.4375,-10.125,0
64170,0.9375,-11.125,-9.375,0
64190,2.1875,-8.6875,-9.9375,0
64210,3.3125,-6.5,-10.875,0
64220,1.375,-7.625,-11.0625,0
64240,1.375,-9,-10.3125,0
64260,3.8125,-7,-10,0
64280,2.3125,-5.3125,-8.6875,0
64300,-0.3125,-5.25,-8.375,0
64320,-1.125,-6,-9.6875,0
64340,-0.375,-6.125,-8.25,0
64360,-1.125,-5.5625,-6.8125,0
64380,-3.5,-3.25,-8.3125,0
64400,-3.5,0,-9.5625,0
64420,-0.375,-2.125,-9.875,0
64440,-1,-5.4375,-9.5,0
64460,-2.3125,-5.0625,-9.3125,0
64480,-3.625,-3.125,-10.4375,0
64500,-3.125,-3.75,-11,0
64520,-4.1875,-3.875,-11.125,0
64540,-4.625,-2.75,-11.25,0
64560,-3.75,-1.625,-11.4375,0
64580,-3.3125,-0.125,-12.0625,0
64600,-2.5625,-2.375,-13,0
64620,-3.375,-3.9375,-13,0
64640,-2.75,-4.9375,-13.75,0
64660,-5.625,-6.125,-13.0625,0
64670,-5.3125,-5,-15.3125,0
64670,-3.3125,-3.5,-15.3125,0
64670,-2.8125,-2.625,-13.375,0
64690,-5.625,-3,-13.0625,0
64710,-4.875,1.1875,-16.5625,0
64730,-2.0625,2.5,-15.375,0
64750,-1.125,2.8125,-14.625,0
64770,-0.6875,4.375,-14.8125,0
64790,-1.8125,5.0625,-16.125,0
64810,-2.0625,5.5,-15.375,0
64830,-2.125,3.25,-15,0
64850,-5.3125,2.5625,-15.3125,0
64870,-5.1875,1.8125,-15.5,0
64890,-4.875,1.375,-15.3125,0
64910,-5.0625,2.4375,-16.0625,0
64930,-7.3125,3,-16.5,0
64950,-7.9375,5.25,-15.3125,0
64970,-5.875,6.375,-15.625,0
64990,-8.3125,8.125,-14.6875,0
65010,-10.125,8.375,-13.0625,0
65030,-7.8125,7.9375,-14.0625,0
65050,-7.8125,10.0625,-14.125,0
65070,-7.625,10.8125,-14.125,0
65090,-7.8125,7.4375,-14.5625,0
65110,-6.6875,5.75,-16.4375,0
65130,-5.5,5.125,-15.25,0
65150,-6.9375,4.8125,-14.6875,0
65170,-8.375,6.1875,-14.375,0
65190,-8.3125,5.6875,-13.875,0
65210,-6.0625,4.9375,-12.6875,0
65230,-2.25,4,-13.375,0
65250,-2.3125,4.5625,-14.5625,0
65270,-4.1875,4,-14.6875,0
65290,-4.375,2.5625,-14.875,0
65310,-2.5,2.375,-14,0
65330,-3.875,2.0625,-12.875,0
65350,-4.375,4.125,-12.875,0
65370,-4.6875,5.8125,-12.375,0
65390,-5,5,-13.25,0
65410,-5.5,5.1875,-13.875,0
65430,-7,4.8125,-13.3125,0
65450,-6.375,5.125,-13.8125,0
65470,-5.9375,5.4375,-14.3125,0
65490,-7.1875,5.25,-14,0
65510,-8.4375,5.375,-14,0
65530,-8.25,6.0625,-13.25,0
65550,-10.375,7.6875,-14.375,0
65570,-10.6875,7,-13.875,0
65590,-10.4375,5.5625,-14,0
65610,-9.1875,5.9375,-14.9375,0
65630,-9.125,6.625,-15.3125,0
65650,-13.4375,5.4375,-14.25,0
65670,-15,5.375,-14.625,0
65690,-11.6875,8.5625,-16.1875,0
65710,-10.1875,8.3125,-14.875,0
65730,-13.1875,8.4375,-14.5,0
65750,-13.0625,9.3125,-14,0
65770,-12.75,9.4375,-13.5625,0
65790,-13.125,10.4375,-13.9375,0
65810,-10.75,10,-13.125,0
65830,-8.8125,10.0625,-12.375,0
65850,-10.9375,11.625,-12.375,0
65870,-12.0625,14.125,-12.0625,0
65890,-11.8125,15.5,-10.375,0
65910,-10.875,15.25,-11,0
65930,-7.4375,15.3125,-10.1875,0
65950,-3.3125,15.5,-8.5,0
65970,-5.375,15,-10.25,0
65990,-7.75,16.1875,-10.75,0
66010,-9.875,17.9375,-7.6875,0
66030,-8.75,19.25,-8.4375,0
66050,-7.625,16.9375,-8.875,0
66070,-8.0625,15.25,-5.125,0
66090,-9.5,15.3125,-3.0625,0
66100,-9.5,16.125,-4.375,0
66120,-12.25,15.8125,-3.9375,0
66140,-14.875,14.4375,-2,0
66160,-12.9375,17.3125,-3.25,0
66180,-11.8125,23.625,-6.3125,0
66200,-12.6875,20.375,-5.375,0
66220,-15.25,14.375,-3.5625,0
66240,-12.5,11.9375,-3.375,0
66260,-10.1875,12.125,-4.3125,0
66280,-12.75,11.875,-5.1875,0
66300,-15.25,12.3125,-4.625,0
66320,-16.5625,10.875,-2.6875,0
66340,-14.625,10.125,-4.1875,0
66360,-8.9375,11.4375,-5,0
66380,-6,12,-2.125,0
66400,-13.8125,11.25,-1.25,0
66420,-15.5,12.8125,-1.4375,0
66440,-14.6875,13.125,-2.125,0
66460,-10.1875,10.6875,0.375,0
66480,-9.375,9.3125,2.4375,0
66500,-9,10.8125,2.0625,0
66520,-11.8125,12.8125,2.125,0
66540,-13.6875,12.25,1.9375,0
66560,-11.9375,10.3125,3,0
66580,-8.5625,9.5,4.5,0
66600,-8.5625,9.8125,5.75,0
66620,-10,11.125,4.9375,0
66640,-12.875,9.5625,6.1875,0
66660,-13.8125,8,6.75,0
66680,-11.4375,8.25,7.0625,0
66700,-9.625,8.6875,5.4375,0
66720,-10.5625,8.875,5.8125,0
66740,-11.9375,9.125,7.25,0
66760,-13.1875,9.125,7.3125,0
66780,-15.9375,8.5625,9,0
66800,-14.3125,6.9375,10.5625,0
66820,-13.5,6.75,10.375,0
66840,-13.3125,8.4375,9.9375,0
66860,-13.1875,8.625,9.5,0
66880,-12.3125,7.375,8,0
66900,-11,5.3125,8.5,0
66920,-9.0625,5.5,8.75,0
66940,-8.6875,7.8125,7,0
66960,-7.6875,8.75,7.4375,0
66980,-10.6875,6.9375,10.25,0
67000,-8.9375,9.3125,7.4375,0
67020,-2.1875,13.0625,4.9375,0
67040,-3.9375,13.3125,7.8125,0
67060,-10.75,13.25,7.5625,0
67080,-10.875,12.1875,5.625,0
67100,-6.4375,9.375,4.4375,0
67120,-6.375,4.6875,5.8125,0
67140,-8.0625,5.4375,6.625,0
67160,-10.875,7.25,3.625,0
67180,-12.9375,4.875,0.75,0
67200,-10.0625,-1.75,3.3125,0
67220,-4.1875,-1.5,3.3125,0
67240,-4.0625,0.0625,2.1875,0
67260,-5.125,0.625,2.1875,0
67280,-5.625,0,3.75,0
67300,-5.4375,-0.875,5.75,0
67320,-5.75,1.5625,6.125,0
67340,-8.3125,2.5,6.6875,0
67360,-12.5,2.125,8.75,0
67380,-9.625,4.8125,4.8125,0
67400,-7.8125,1.6875,6.75,0
67420,-7.5625,2.125,6.75,0
67440,-8.625,4.125,4.75,0
67460,-11.6875,4.0625,4.5,0
67480,-10.8125,2.25,5.8125,0
67500,-8.9375,1.75,6,0
67520,-10.75,5.25,7.9375,0
67550,-13.75,7.8125,11,0
67590,-8.5625,6,8.6875,0
67610,-7.25,2.8125,10.375,0
67620,-8.625,5.4375,8.875,0
67640,-12.0625,4.9375,9.875,0
67660,-12.75,3.5625,10.0625,0
67680,-13.125,3.5625,10.25,0
67700,-9.375,4.125,9.3125,0
67720,-8.875,4.875,8.4375,0
67740,-12.9375,3.9375,8.3125,0
67760,-13.25,4.6875,7.5,0
67780,-9.125,5.9375,7.5,0
67800,-4.0625,3.25,9.75,0
67820,-15.0625,0.0625,13.75,0
67840,-21.5625,2.6875,12.9375,0
67860,-25.875,3.5625,16.375,0
67880,-24.4375,1.4375,13.625,0
67900,-18.0625,-1.5,11.4375,0
67920,-11.5625,-4.125,11.0625,0
67940,-11.5625,-5.75,13.3125,0
67960,-15.375,-4.6875,12.875,0
67980,-13.625,-4.875,10.875,0
68000,-11.4375,-6.3125,12.375,0
68020,-11.5625,-7.25,13.0625,0
68040,-13.25,-7.5,12.1875,0
68060,-10.375,-7.5,8.5,0
68080,-10.625,-9.9375,11.25,0
68100,-12.375,-10.1875,11.3125,0
68120,-13.0625,-8.75,8.0625,0
68140,-8.8125,-9.625,9.4375,0
68160,-9.4375,-10.3125,10.3125,0
68180,-9.3125,-9.25,9.4375,0
68200,-9.375,-8.375,9.5625,0
68220,-12.5625,-8.5,11.6875,0
68240,-10.0625,-8.5625,11.0625,0
68260,-4.875,-9.5625,9.6875,0
68280,-1.875,-9.875,8.5625,0
68300,-4.75,-10.125,8.0625,0
68320,-5.875,-9.3125,8.0625,0
68340,-4.625,-8,8.9375,0
68360,-2.8125,-8.125,10.75,0
68380,-3.4375,-7.25,10.0625,0
68400,-2.1875,-5.625,8.5625,0
68420,-1.625,-7.3125,9.9375,0
68440,-0.125,-8.1875,9.25,0
68460,4.875,-8.5625,7.5625,0
68480,1.8125,-10.25,7.8125,0
68500,-1.6875,-10.9375,8.625,0
68520,-1.125,-12,8.625,0
68540,0.125,-12.8125,10.25,0
68560,0,-10.875,10.3125,0
68580,-2.4375,-10.125,10.0625,0
68600,-2,-11.3125,9.375,0
68620,1,-11.0625,8.875,0
68640,4.375,-10.5,8.8125,0
68660,3.625,-11.0625,9.1875,0
68680,-0.5625,-11.1875,9.125,0
68700,-1.9375,-10.8125,6,0
68720,-3.9375,-10.5,6.9375,0
68740,0.8125,-8.875,6.8125,0
68760,-0.9375,-8.3125,7.9375,0
68780,-3.8125,-7.375,8.125,0
68800,-5.25,-6.1875,6.6875,0
68820,-5.0625,-6.5625,7.875,0
68840,-2.375,-6.3125,8.3125,0
68860,-3,-7.0625,8.25,0
68880,-0.4375,-6.25,8,0
68900,-0.25,-6.8125,8.5625,0
68920,-4,-8.125,8.4375,0
68940,-3.1875,-9.0625,7.75,0
68960,1.625,-8.75,7.1875,0
68980,0.875,-9.625,7.8125,0
69000,-4.125,-9.3125,8.3125,0
69020,-4.625,-9.6875,7.75,0
69040,2.0625,-10.25,6.75,0
69060,3.0625,-12,7.0625,0
69080,-0.5625,-12.375,6.875,0
69100,-2.25,-12.25,6.125,0
69120,0,-13.625,7,0
69140,-1.6875,-15.4375,6.8125,0
69160,-4.6875,-16.125,7,0
69180,-2.375,-15.625,3.875,0
69200,-0.0625,-16.3125,4.3125,0
69220,-0.1875,-17.625,4,0
69240,1.625,-17.625,2.9375,0
69260,2.625,-17.8125,3.25,0
69280,-0.4375,-17.75,3.625,0
69300,-3.1875,-16.875,1.8125,0
69320,-1.75,-17.5625,1.875,0
69340,1.8125,-17.6875,2.125,0
69360,3.75,-18,1.1875,0
69380,2.0625,-19.4375,-0.5625,0
69390,3.4375,-19.8125,-0.6875,0
69410,6.625,-18.8125,-0.3125,0
69430,10.5,-17.4375,0.0625,0
69450,6.3125,-17.5625,1.125,0
69470,2.25,-16.375,2.1875,0
69490,1.125,-16,2.5625,0
69510,5.6875,-16.5625,2.125,0
69530,5.6875,-17.1875,1.5,0
69550,5.25,-18.25,0.4375,0
69570,7.875,-18,-0.875,0
69590,10.3125,-17.625,0.75,0
69610,6.9375,-15.4375,0.125,0
69630,4.125,-16.3125,0.5625,0
69650,4.9375,-17.4375,1.375,0
69670,8.1875,-16.375,3.1875,0
69690,5.1875,-16.125,3.4375,0
69710,2.0625,-16.1875,1.8125,0
69730,2.625,-17.125,0.5,0
69750,5.0625,-17.6875,0.625,0
69770,4.5625,-18.25,1.25,0
69790,4.6875,-16.5,0,0
69810,5.8125,-17.125,0,0
69830,6.9375,-17.8125,1.4375,0
69850,4.125,-16.5625,-1.4375,0
69870,5.3125,-15.0625,-2.0625,0
69890,6.375,-17.9375,-0.875,0
69910,4.625,-19.3125,-0.0625,0
69930,5.375,-18.625,-0.5,0
69950,11.4375,-17.125,-4.125,0
69970,14.625,-17.5,-4.9375,0
69990,9,-19,-3.5,0
70010,6.0625,-17.8125,-6,0
70030,5.375,-18.125,-5.5,0
70050,7.25,-18.3125,-3.9375,0
70070,7.0625,-17.5625,-2.9375,0
70090,6.75,-18,-2.625,0
70110,5.25,-20,-1.875,0
70130,6.25,-19.875,-1.4375,0
70150,9.25,-19.125,-3.375,0
70170,8.625,-19,-2.6875,0
70190,6.6875,-18.8125,-3.625,0
70210,8,-18.1875,-6.5625,0
70230,11.75,-18,-5.625,0
70250,7.4375,-18.6875,-2.6875,0
70270,-1.125,-16.5625,-2.5625,0
70290,-0.1875,-15.875,-3.125,0
70310,2.8125,-15.875,-2.875,0
70330,4.625,-15.0625,-2.6875,0
70350,1.75,-13.5625,-3.4375,0
70370,4.0625,-12.1875,-6.375,0
70390,10.0625,-12.875,-10.8125,0
70410,12.6875,-14.8125,-11.4375,0
70430,11.5625,-12.875,-11.1875,0
70450,11.1875,-10.375,-12.3125,0
70470,8.8125,-12.625,-11.75,0
70490,6,-13.75,-10.4375,0
70510,5.4375,-13.0625,-12.375,0
70530,12.5625,-12.8125,-16.25,0
70550,12.75,-15.3125,-12.6875,0
70570,8.3125,-13.625,-14.5,0
70590,4.875,-9.625,-16.4375,0
70610,9.5,-10.375,-15.4375,0
70630,14.5,-15,-14.375,0
70650,15.5,-15.375,-13.375,0
70670,12.375,-13.3125,-15.875,0
70690,8.625,-11.6875,-17.4375,0
70710,5.6875,-12.25,-15.375,0
70730,4.0625,-13.625,-13.875,0
70750,4.5,-12.9375,-14.6875,0
70770,8.5625,-10.75,-14,0
70790,6.625,-9.6875,-14.625,0
70810,2.6875,-7.875,-14.5,0
70830,0.3125,-6,-13.25,0
70850,1.5,-3.1875,-10.625,0
70870,1.25,-4.125,-11.625,0
70890,2.3125,-5.3125,-11.5625,0
70910,-0.25,-6.25,-8.625,0
70930,-2.875,-4.4375,-8,0
70950,-3.75,-2.125,-9.625,0
70970,-2.875,-3.0625,-8.625,0
70990,-2.25,-4.125,-7.5625,0
71010,-3.6875,-3.25,-7.3125,0
71030,-4.8125,-1.6875,-7,0
71050,-3,-0.4375,-7.25,0
71070,-2.3125,-2.375,-7.1875,0
71090,-2.9375,-3.0625,-6.75,2001
71110,-2,-1.0625,-7.1875,0
71120,-2.625,0.1875,-6.75,0
71150,-5.4375,0.5625,-6.0625,0
71170,-4.6875,0.875,-6.3125,0
71190,-1.25,1.0625,-7.5,0
71210,0,1.5625,-6.9375,0
71230,-2.8125,2.1875,-5.0625,0
71250,-3.9375,2.5625,-6.125,0
71270,-2.375,1.4375,-6.0625,0
71290,-1.75,1.3125,-3.625,0
71310,-2.8125,1.625,-2.5625,0
71330,-4,1.8125,-2.1875,0
71340,-6.375,1.0625,-1.25,0
71360,-6.375,2.0625,-2.125,0
71380,-5.9375,2.125,-1.1875,0
71400,-5.625,1.9375,-0.6875,0
71420,-5.125,3.3125,0.4375,0
71440,-5.375,5.5,-0.5625,0
71460,-4.5625,7.9375,0.3125,0
71480,-3.4375,12.0625,1.6875,0
71500,2.5625,16.375,2.4375,0
71520,5.6875,19.6875,7.1875,0
71540,7.3125,25.5,11.0625,0
71560,10.0625,34.5,12.625,0
71580,15.0625,44.5,19.9375,0
71600,22.0625,57.5,30.3125,0
71620,29.3125,73.625,36.8125,0
71640,37.125,82.375,41.4375,0
71660,33.625,86.6875,47.625,0
71680,41.625,93.3125,50.0625,0
71700,55.75,112.562,50.125,0
71720,52.0625,114.5,50.75,0
71740,48.6875,102.438,44.75,0
71760,57.125,99.1875,48.6875,0
71780,65.8125,99.5625,52.6875,0
71800,64.5625,96.125,49.5,0
71820,58.4375,83.875,43.5,0
71840,62.3125,74.375,42.875,0
71860,67.3125,67.1875,54.3125,0
71880,57.9375,58.3125,50.9375,0
71900,51.3125,50.375,40.4375,0
71920,46.1875,43.5625,44.9375,0
71940,32.6875,36.75,51.375,0
71960,27.125,28.3125,43.5,0
71980,23.375,19.5625,38.0625,0
72000,14.375,12.75,39.625,0
72020,-0.625,0.875,43,0
72040,-8.25,-3.25,44,0
72060,-12.3125,-0.25,47.5625,0
72080,-16.125,-8.3125,44,0
72100,-14.5625,-12.1875,40.0625,0
72120,-14.25,-14.9375,35.5625,0
72140,-15.875,-13.8125,37.125,0
72160,-19.75,-10.25,37.375,0
72180,-23,-11.4375,28.9375,0
72200,-24,-12.6875,24.875,0
72220,-21.5,-11.6875,26.4375,0
72240,-22.625,-6.625,23.3125,0
72260,-20.75,-0.0625,17.0625,0
72280,-14.875,4.125,15.3125,0
72300,-13.8125,3.5,12.5,0
72320,-14.75,2.8125,12.5625,0
72340,-15.4375,1.6875,9.5625,0
72360,-6.8125,1.25,6.75,0
72380,-1.375,0.1875,8.375,0
72400,-4.1875,-0.8125,8.4375,0
72420,-5.3125,-0.0625,7.0625,0
72440,-5.3125,-0.25,6.125,0
72460,-8.125,-2.4375,5.875,0
72480,-11.4375,-3.5,4.375,0
72500,-9,-2.9375,4,0
72520,-2.125,-2.3125,1.1875,0
72540,-1.4375,-1.5625,0.4375,0
72560,-5.875,-1.8125,0.8125,0
72580,-7.625,1,0.5625,0
72600,-6,4.375,-0.625,0
72620,-6.8125,6.1875,-2.4375,0
72640,-1,5.625,0.5625,0
72670,-0.1875,5.8125,-1.875,0
72690,-2,6.625,-1.9375,0
72710,-3.6875,5.875,-0.5625,0
72730,-5.75,5.4375,0.875,0
72750,-6.25,4.1875,1.75,2000
72770,-5,3,1.4375,0
72790,-7.0625,2.0625,5.0625,0
72810,-5.75,1.9375,5.75,0
72830,-3.8125,0.5,3.9375,0
72840,-4.75,-0.5625,4.625,0
72860,-4,-0.75,3.5,0
72880,-2.75,-1.6875,2.5,0
72900,-2.1875,-2.25,2.5,0
72920,-2.1875,-2.5625,-0.0625,0
72960,-8.3125,-1.375,0.125,0
72990,-11.375,-0.75,1.4375,0
73010,-13.875,-0.8125,4.3125,0
73030,-15.1875,-1.125,3.6875,0
73050,-14.75,-0.3125,1.3125,0
73070,-15.3125,-0.75,0.75,0
73090,-16.8125,-2.125,0.5,0
73110,-18.3125,-2.125,1.5,0
73130,-18.75,-2.4375,0.5,0
73150,-17.5625,-2.75,-0.875,0
73170,-19.8125,-2.5625,0.1875,0
73190,-19.75,-2.8125,0.1875,0
73210,-17.4375,-2.25,0.75,0
73230,-17.8125,-0.6875,0.375,0
73250,-17.8125,-1.3125,-2.9375,0
73270,-14.8125,-2.25,-6,0
73290,-13.0625,-3.6875,-8.1875,0
73310,-8.9375,-3.3125,-12.3125,0
73330,-11.875,-5.4375,-13.0625,0
73350,-10.5625,-5.5,-15.625,0
73370,-8.875,-5.0625,-17.625,0
73390,-9.75,-2.6875,-16,0
73410,-9.0625,0.1875,-15.625,0
73430,-10.125,3.25,-14.9375,0
73450,-10.1875,3.6875,-12.375,0
73470,-10.625,4.4375,-12.75,0
73490,-8.5,4.625,-15,0
73510,-7,4.5,-15.5,0
73530,-2.4375,5.25,-14.875,0
73550,3.75,5.5,-14.5,0
73570,6,6.9375,-16.0625,0
73600,9.25,12.4375,-18.875,0
73620,12.875,12.8125,-16.625,0
73640,14,13.375,-14.3125,0
73660,17.75,16.8125,-13.5,0
73680,18.8125,21.125,-10.125,0
73700,12.8125,23.0625,-5.75,0
73720,14.8125,27.6875,-2.625,0
73740,18.5,30.9375,3.75,0
73760,20.3125,28.9375,9,0
73780,18.0625,26.75,9.125,0
73800,16.8125,24.9375,5,0
73820,19.875,21.625,-0.6875,0
73840,24.5625,14.1875,-2,0
73860,25.9375,7.5,-1.8125,0
73880,29.0625,-0.4375,-3.5625,0
73900,24.6875,-7.3125,-4.0625,0
73920,19.4375,-12.8125,-4.6875,0
73940,14.75,-16.625,-4.75,0
73960,13.6875,-20.25,-1.5,0
73980,12.125,-23.625,2.9375,0
74000,10.3125,-27.3125,4.9375,0
74020,5.6875,-27.5,6.0625,0
74040,2.8125,-27.125,6.3125,0
74060,2.125,-28.0625,8.5,0
74080,-0.1875,-26.8125,13.625,0
74100,-3.3125,-21.5625,19.25,0
74120,-4.625,-17.75,20.1875,0
74140,-5.0625,-15.4375,18.875,0
74160,-8.75,-13.125,19.5625,0
74180,-8.125,-9.5,19.625,0
74200,-7.6875,-8.25,17.75,0
74220,-5.4375,-7.625,16.3125,0
74240,-5.875,-6.8125,14.125,0
74260,-2,-4.875,8.6875,0
74280,-1.25,-4.4375,5.5,0
74300,-6.5625,-3.875,5.9375,0
74320,-6.625,-3.5,4.875,0
74340,-2.5,-1.75,4.6875,0
74360,-3.875,-1.1875,6.1875,0
74380,-8.4375,-1.125,7.9375,0
74400,-8.6875,-0.875,7.75,0
74420,-8.1875,-0.4375,8.3125,0
74440,-6.5,0.875,8.625,0
74460,-6.625,3.3125,5.6875,0
74480,-6,1.9375,3.9375,0
74500,-2.6875,-0.375,5.625,0
74520,0.25,-1.9375,3.625,0
74540,-1.25,-1.9375,1.125,0
74560,-3.875,-2.75,1.25,0
74580,-5.5,-2.625,3.625,0
74600,-3.6875,-0.1875,2.75,0
74620,-2.8125,0.8125,2.75,0
74640,-1.375,0.9375,4.0625,0
74650,2.8125,2,4.125,0
74670,2.4375,3.375,2.25,0
74690,1.125,2.9375,-1.3125,0
74710,-3.125,1.125,-2.4375,0
74730,0.1875,-2.3125,-0.25,0
74750,3.9375,-1.375,5.5,0
74770,1.8125,1.6875,1.75,0
74790,-1.5,0.5,-4.4375,0
74810,0.25,-5.3125,-3.3125,0
74830,5,-9.5,2.9375,0
74850,10.25,-7.0625,4.8125,0
74870,9.375,-4.1875,-2.3125,0
74890,5.25,-7.8125,-4.8125,0
74910,4.9375,-12,-1.25,0
74930,5,-11,-1.0625,0
74950,7.8125,-12.0625,-4.5,0
74970,7.8125,-12.4375,-6.25,0
74990,5.6875,-11.625,-3.25,0
75010,3.1875,-11.8125,0.3125,0
75030,3.4375,-11.625,1.1875,0
75050,1.3125,-10.4375,-0.9375,0
75070,-0.0625,-9.1875,-1,0
75090,1.6875,-10.125,0.5,0
75110,3.625,-11.75,1.25,0
75130,4.9375,-10.875,0.9375,0
75150,-0.25,-8.25,0.875,0
75170,-3.5625,-6.75,1.125,0
75190,-3.6875,-8.4375,2.375,0
75210,-0.1875,-9.875,2,0
75230,2.375,-10.625,1.875,0
75250,3.25,-7.9375,2.0625,0
75270,3.0625,-7.125,2.5,0
75290,1.0625,-7.125,2.75,0
75310,1.3125,-6.625,2.625,0
75330,5.0625,-4.5,-0.0625,0
75350,6.625,-5.25,-1.1875,0
75370,5.375,-6.5,-0.375,0
75390,6.1875,-6.0625,-2.75,0
75410,7.9375,-6.8125,-4.5,0
75430,6,-6.8125,-5.1875,0
75450,6,-5.8125,-4.375,0
75470,4.5,-3.6875,-4.6875,0
75490,5.3125,-3.125,-5.75,0
75510,5.5,-4.3125,-5.4375,0
75530,5.5625,-4.3125,-4.875,0
75550,4.375,-2.0625,-4.5625,0
75570,4.375,-0.9375,-3.625,0
75590,3.25,-0.0625,-4.0625,0
75610,4.1875,0.875,-4.875,0
75630,7,2.4375,-6.125,0
75650,6.1875,2,-4.75,0
75670,3.625,4,-5.125,0
75690,1.3125,6.5625,-7.9375,0
75710,1.375,4.6875,-7.5,0
75730,4.125,2,-6.9375,0
75750,6.875,0.5,-6.3125,0
75770,7.875,2,-8.1875,0
75790,6.625,2.5,-9.75,0
75810,4.6875,0.875,-7.8125,0
75830,7.75,2.1875,-7.25,0
75850,10.25,0.5625,-9.5,0
75870,9.5,-1.9375,-10.75,0
75890,7.0625,-3.875,-11.9375,0
75910,6.1875,-4.25,-12.375,0
75930,6.5,-5.4375,-11.1875,0
75950,6.125,-6.4375,-10.875,0
75970,7.5,-7.0625,-12.8125,0
75990,6.875,-6.4375,-11.9375,0
76010,5.3125,-6.3125,-11,0
76030,4.0625,-5.8125,-9.25,0
76050,3.6875,-5.5,-7.9375,0
76070,2.8125,-3.625,-7.5,0
76090,2,-3.375,-6.6875,0
76110,2.1875,-3.625,-6.5625,0
76130,0.625,-3.3125,-7.0625,0
76150,-0.5,-3.75,-7.4375,0
76170,-0.8125,-4.8125,-6.8125,0
76190,-1.4375,-3.75,-6.9375,0
76210,-1.5,-2,-6.0625,0
76230,-2.125,-0.6875,-4.9375,0
76250,-4.0625,0.25,-2.5,0
76270,-5.8125,4.25,-1.625,0
76290,-6.3125,5,-1.625,0
76310,-7.875,2.6875,-0.5625,0
76330,-5.5,0.1875,-0.5,0
76350,-2.4375,0.375,-1.375,0
76370,-3.0625,0.8125,-2.4375,0
76390,-7.125,4.1875,-2.6875,0
76410,-5.375,5.0625,-3,0
76430,-1.75,3.0625,-5.1875,0
76450,0.8125,2.5625,-6.625,0
76470,1.3125,2.5,-5.8125,0
76490,0.3125,2.5625,-7.5625,0
76510,-1.9375,3.8125,-10.125,0
76530,-1.1875,3.3125,-10.4375,0
76550,1.6875,3.4375,-10.5,0
76570,1.0625,3.0625,-7.875,0
76590,-0.625,1.625,-8.25,0
76610,-1.3125,1.375,-9.5,0
76620,-2.375,1.1875,-8.4375,0
76640,-4.25,3.125,-6.625,0
76660,-4.9375,3.875,-5.75,0
76680,-0.9375,1.4375,-5.4375,0
76700,-1.0625,-0.75,-5.3125,0
76720,-2.8125,-0.0625,-6.5625,0
76740,-3.8125,2.25,-8.125,0
76760,-1,1.1875,-7.625,0
76780,0.75,-0.5625,-6.8125,0
76800,1.6875,-0.75,-8,0
76820,1.5625,1.0625,-9.625,0
76840,1.0625,1.4375,-9.4375,0
76860,-0.6875,1.0625,-8.5625,0
76880,-1.375,1.375,-7.4375,0
76900,-3.3125,2.1875,-7.9375,0
76920,-3,2.875,-9.9375,0
76940,-3.5,4,-9.875,0
76960,-3.0625,5.0625,-9.25,0
76980,-1.6875,6.3125,-10.125,0
77000,-3.0625,7.5,-11.625,0
77020,-4.875,5.5,-11.8125,0
77040,-5,4.5625,-11,0
77060,-3.375,4.375,-11.125,0
77080,-2.875,4,-11.5,0
77100,-5,3.6875,-10.875,0
77120,-5.375,2.4375,-11.5625,0
77140,-3.4375,2.125,-11.1875,0
77160,-3.125,1.875,-10.125,0
77180,-3.875,3.875,-11.125,0
77200,-2.4375,3.9375,-10.375,0
77220,-2,3.9375,-8.6875,0
77240,-1.1875,3.0625,-8.375,0
77260,-1.625,2.375,-9.5,0
77280,-2.625,1.9375,-8.625,0
77300,-2.5,2.3125,-7.9375,0
77320,-2.9375,2.75,-8.125,0
77340,-3.4375,4.5,-8.25,0
77360,-4.0625,5,-8.5625,0
77380,-2.875,4.6875,-8.0625,0
77400,-2.5625,4.625,-7.3125,0
77420,-3.3125,6.375,-8.5625,0
77440,-3.4375,8,-9.75,0
77460,-3.6875,7.25,-9.5625,0
77480,-3.875,6.3125,-9.375,0
77500,-4.375,6.5,-9.5,0
77520,-3.75,6.875,-9.5625,0
77540,-3.125,7.25,-10.75,0
77560,-3.375,5.9375,-11.8125,0
77580,-2.875,3.5,-11.5625,0
77600,-1.8125,2.5625,-10.5,0
77620,-1.25,3.0625,-11,0
77640,-1.9375,3.375,-11.125,0
77660,-2.5,2.875,-9.4375,0
77680,-2.375,2.875,-8.1875,0
77700,-3.125,2.9375,-7.75,0
77720,-4.125,3.125,-6.4375,0
77740,-5.1875,4.625,-4.4375,0
77760,-4.5625,4.875,-3.375,0
77780,-4.625,5.4375,-2.9375,0
77800,-3.8125,5.9375,-2.4375,0
77820,-4.4375,5,-3.375,0
77840,-2.8125,4.5625,-5.5,0
77860,-1.25,4.8125,-6.875,0
77880,-0.25,5.4375,-8.5625,0
77900,-0.4375,5.75,-7.5625,0
77920,0,6.25,-7.1875,0
77940,0.875,7.5,-7.6875,0
77960,0.375,7.3125,-7.5,0
77980,-1.8125,6.5625,-6.4375,0
78000,-3.125,6.3125,-5.75,0
78020,-1.8125,7.1875,-6.75,0
78040,0.0625,7.125,-7.9375,0
78060,-1.0625,5.6875,-8.625,0
78080,-3,3.3125,-10.1875,0
78100,-2.5625,3.5625,-11.3125,0
78120,-2.9375,4.5,-11.6875,0
78140,-5.9375,5.625,-13.25,0
78160,-7.1875,6.75,-13,0
78180,-3.8125,6.0625,-12.625,0
78200,-1.875,5.4375,-12.8125,0
78220,-4.875,5.5625,-12.375,0
78240,-9.8125,5.25,-11.5625,0
78260,-10.875,5.9375,-10.5625,0
78280,-8.125,6.625,-10.75,0
78300,-5.1875,6.25,-10.0625,0
78320,-6.5625,5.1875,-8.75,0
78340,-8.75,5.5,-9.625,0
78360,-9.875,6.625,-10.75,0
78380,-9.3125,6.3125,-9.3125,0
78400,-9.0625,6.125,-8.25,0
78420,-8.25,5.9375,-8.6875,0
78440,-9.1875,6.8125,-9.6875,0
78460,-8.625,6.625,-9.375,0
78480,-7.75,6.5625,-7,0
78500,-7.875,6.8125,-6.75,0
78520,-10.25,7.75,-7.25,0
78540,-9.625,10.0625,-9.25,0
78560,-7.125,10.3125,-9,0
78580,-7.375,9.375,-9.25,0
78600,-7.875,8.625,-9.625,0
78620,-6.8125,9.125,-9.8125,0
78640,-5.4375,10.0625,-11.0625,0
78660,-4.1875,9.9375,-10.9375,0
78680,-4.375,10.125,-10.625,0
78700,-4.375,10.375,-10.375,0
78720,-5.4375,10.5,-9.625,0
78740,-7.0625,9.75,-8.9375,0
78760,-6.8125,7.8125,-8.6875,0
78780,-6.5625,8,-8.4375,0
78800,-4.625,7.875,-7.75,0
78820,-2.6875,5.9375,-9.375,0
78840,-1.875,5.5625,-10.0625,0
78860,-1,6.3125,-11.4375,0
78880,1.1875,6.125,-12.625,0
78900,2.8125,5.4375,-14.4375,0
78920,0.6875,5.875,-14.75,0
78940,-1.375,4.875,-14.5625,0
78960,-0.5625,4.125,-15.0625,0
78980,-1.125,4.875,-14.125,0
79000,-2,3.125,-14.875,0
79020,-1.8125,3.5625,-15.3125,0
79040,-1.5,4.8125,-14.25,0
79070,-1,7.9375,-12.8125,0
79090,-0.4375,7.625,-10.875,0
79110,-2.5625,6.9375,-9.5,0
79130,-3.25,6.1875,-9.75,0
79150,-3.375,8,-9.5625,0
79170,-2.8125,7.875,-7.4375,0
79190,-4.4375,6,-5.9375,0
79210,-5.125,5.1875,-7.375,0
79230,-4.1875,7.625,-6.3125,0
79250,-6.625,7.3125,-4.6875,0
79270,-5.25,6.1875,-5.25,0
79290,-2.625,4.9375,-5.0625,0
79310,-1.875,5.6875,-4.8125,0
79330,-3.3125,6.25,-5.3125,0
79350,-4.0625,5.4375,-6.6875,0
79370,-2.4375,5.125,-5.25,0
79380,-2.3125,4.625,-4.4375,0
79400,-2.75,4.625,-3.6875,0
79420,-3,5.1875,-2.8125,0
79440,0,5.125,-4.125,0
79460,-0.125,3.3125,-5,0
79480,-1.875,3.875,-3.625,0
79500,-3.5,3.4375,-2.8125,0
79520,-3,3.125,-4,0
79540,-1.125,2.8125,-4.625,0
79560,-0.0625,3.9375,-2,0
79580,-0.1875,4.6875,0.125,0
79600,0.1875,3,-0.1875,0
79620,2.1875,2.1875,-0.125,0
79640,1.875,0.1875,0.0625,0
79660,0.75,0.5,-0.0625,0
79680,-2.5625,2.5,1,0
79700,-2.8125,3.625,1.375,0
79720,-0.5625,3.875,-0.5,0
79740,-1,3.625,0.25,0
79760,-1.9375,2.8125,2,0
79780,-2.625,2.75,1.6875,0
79800,-1.875,4.6875,0.1875,0
79820,-1.6875,5.625,0.625,0
79840,-3.5,4.25,2.375,0
79860,-4.8125,4,1.6875,0
79880,-3.625,6.125,0.1875,0
79900,-3.6875,7.6875,1.375,0
79920,-3.4375,6.3125,1.9375,0
79940,-4.375,5.375,1,0
79960,-3.8125,5.8125,0.1875,0
79980,-4.75,7.875,0.6875,0
80000,-3.1875,8.5625,1.125,0
80010,-2.5,7.3125,0.8125,0
80030,-3.625,5.875,0.375,0
80050,-2.25,5.9375,0.1875,0
80070,-3.75,4.75,1.3125,0
80090,-5.75,3.0625,1.9375,0
80110,-4.8125,2.0625,1.3125,0
80130,-5.25,1.75,1.0625,0
80150,-5.1875,2.0625,2.125,0
80170,-5.375,0.625,2.1875,0
80190,-5.5625,0.625,2.6875,0
80210,-4.125,1.125,3.125,0
80230,-2.75,1.0625,2,0
80250,0.25,1.0625,1.125,0
80270,-0.125,-0.5,3.625,0
80290,-3.25,-0.5625,5.125,0
80310,-5.125,0.25,3.8125,0
80330,-5.3125,-0.0625,3.3125,0
80350,-5.1875,-1.8125,5.9375,0
80370,-5.5625,-2.125,6.6875,0
80390,-6,-1.375,5.3125,0
80410,-6.0625,0.4375,4.875,0
80430,-6.375,-0.625,5.5625,0
80450,-4.8125,-1.6875,6.0625,0
80470,-4.8125,-1.75,5.8125,0
80490,-6.0625,-1.5,5.5,0
80510,-6.5625,-2.1875,3.3125,0
80530,-4.3125,-1.6875,4.1875,0
80550,-2.625,-1.4375,6.25,0
80570,-4.0625,-1.875,5.9375,0
80590,-4.6875,-2.25,5.0625,0
80610,-4.3125,-0.875,6,0
80630,-5.8125,-0.9375,7.5,0
80650,-4.1875,0.25,6.625,0
80670,-1.25,0.75,4.375,0
80690,-0.9375,0.1875,2.9375,0
80710,-1.0625,0.1875,3.4375,0
80730,0.4375,0.4375,2.875,0
80750,2.875,1.4375,2.625,0
80770,1.125,1.9375,3.375,0
80790,-2.25,3.375,5.0625,0
80810,-5.875,5.1875,6.9375,0
80830,-7.375,5.5625,6.1875,0
80850,-4.875,4.3125,7.125,0
80870,-2.875,3.3125,8.5,0
80890,-3.25,3.125,8.3125,0
80910,-4.4375,3.375,5.75,0
80930,-2.875,3.375,5.6875,0
80950,-0.125,1.375,6,0
80970,-0.8125,-0.8125,5.75,0
80990,0.4375,-2.375,3.875,0
81010,2.9375,-2.3125,4.5,0
81030,0.5625,-2.625,7.4375,0
81050,-4.375,-3.125,8.875,0
81070,-4.125,-2.3125,8.875,0
81090,-1.875,-1.1875,8.6875,0
81110,-2.0625,-2.1875,7.4375,0
81130,-1.0625,-4.375,5.6875,0
81150,-0.4375,-5.5,3.3125,0
81170,-0.9375,-5.5,1.625,0
81190,-1.8125,-5.8125,2.6875,0
81210,0.4375,-6,4.375,0
81230,0.5,-5.875,5.125,0
81240,-2.9375,-5,7.25,0
81270,-5.5,-3.5625,8.0625,0
81290,-5.875,-2.6875,6.375,0
81310,-3.4375,-2.5625,6.375,0
81330,-1.125,-3.0625,9.5625,0
81350,-2.3125,-3.4375,10.25,0
81370,-1.5,-1.4375,8.3125,0
81390,-4.0625,-1.375,6.9375,0
81410,-5.6875,-2.6875,7.625,0
81430,-3.625,-2.6875,6.9375,0
81450,-1.875,-2.875,5.8125,0
81470,-3.625,-3.9375,6.25,0
81490,-4.5,-3.4375,7.125,0
81510,-4.9375,-2.6875,8.8125,0
81530,-7.125,-2.8125,10,0
81550,-7.375,-2,10.25,0
81570,-9.8125,-2.75,9.375,0
81590,-9.0625,-3.1875,11,0
81610,-8.1875,-2.5,11.75,0
81630,-8.625,-2,10.625,0
81650,-8.25,-1.6875,9.3125,0
81670,-9.9375,-3.125,9.625,0
81690,-9,-2.375,10.3125,0
81710,-8.75,0,8.8125,0
81730,-18.3125,2,9.5,0
81750,-24.9375,0.4375,8.9375,0
81770,-23.5625,-1.5,8.3125,0
81790,-14.75,-3.4375,16.375,0
81810,-3.625,-2.4375,14.6875,0
81830,-0.625,-4.3125,8.0625,0
81850,-3.375,-7.5625,9.75,0
81870,-1.25,-9.125,10.6875,0
81890,2.5,-8.625,10.5625,0
81910,5,-7.25,9.4375,0
81930,1.6875,-7.125,7.5625,0
81950,-0.5625,-6.75,6.875,0
81970,2.375,-6.75,7.125,0
81990,4.3125,-6.625,7,0
82000,1.6875,-7.6875,6.125,0
82020,2.5625,-8.3125,5.375,0
82040,4.1875,-9.375,5.8125,0
82060,1.9375,-11.3125,8.4375,0
82080,2.1875,-9.75,8.4375,0
82100,2.375,-7.375,6.5625,0
82120,-0.25,-8.1875,8.9375,0
82140,-0.25,-8.0625,10.6875,0
82160,-0.1875,-6.5625,11,0
82180,1.6875,-6.125,10.4375,0
82200,0.625,-6.0625,9.625,0
82220,-2.125,-6.4375,10.4375,0
82240,-1.6875,-5.6875,11.4375,0
82260,-1.125,-4.375,10.625,0
82280,-0.5,-5.625,11.375,0
82300,1.4375,-7.625,13.625,0
82320,-1.75,-9.375,14.3125,0
82340,-3.6875,-10.0625,13.1875,0
82360,-3.9375,-10.5625,12.75,0
82380,-4.5,-11.75,12.0625,0
82400,-1.875,-12.375,11.125,0
82420,0.75,-12.0625,10.5,0
82440,2.6875,-11.75,6.75,0
82460,6.125,-11.75,5.9375,0
82480,6.3125,-13.0625,9.375,0
82510,-3.3125,-12.1875,8.0625,0
82530,-6.3125,-13.4375,11.125,0
82550,-5.1875,-12.25,12.75,0
82570,-3.8125,-12.25,8.9375,0
82590,-0.5625,-11.625,9.5625,0
82600,-0.3125,-9.0625,8.25,0
82610,-2.5,-7.625,8.4375,0
82630,-0.75,-6.8125,7.5625,0
82650,4.75,-7.375,7.625,0
82660,1.0625,-9.5625,8.625,0
82670,0,-9.4375,7.5,0
82690,-1.3125,-10,6.375,0
82710,-0.3125,-11.1875,8.6875,0
82730,2.8125,-10.5,8.875,0
82750,4.125,-9.5625,6.75,0
82770,1.8125,-10.6875,7.0625,0
82790,1.375,-10.875,8.25,0
82810,1.4375,-9.9375,8.875,0
82830,1.375,-11.25,9.5,0
82850,0.9375,-11.75,9.3125,0
82870,0.9375,-10.5625,7,0
82890,0.1875,-11.4375,7,0
82910,1.25,-11.625,7.4375,0
82930,3.0625,-10.375,6.5625,0
82950,1.6875,-10.75,7.0625,0
82970,-0.8125,-11.125,7.125,0
82990,-0.8125,-9.75,6.9375,0
83010,1,-8.6875,8.375,0
83030,1.4375,-10.0625,9.375,0
83050,2.875,-12.5,8,0
83070,2.6875,-12.8125,7.75,0
83090,0.5,-13.25,8.75,0
83110,-2.375,-13.1875,7.9375,0
83130,-1.375,-13.8125,7.8125,0
83150,1.875,-14.0625,8.875,0
83170,2.625,-14.125,8.5,0
83190,1.8125,-14.4375,8.5,0
83210,-0.6875,-14.6875,8.1875,0
83230,-0.75,-14.1875,7.3125,0
83250,-0.6875,-15.125,7.9375,0
83270,1.8125,-15.9375,7.5625,0
83290,2.4375,-15,5.6875,0
83310,3,-14.375,5.4375,0
83330,2.625,-15.375,6.8125,0
83350,2.4375,-14,7.0625,0
83370,1.6875,-12.4375,6.0625,0
83390,-1.125,-11.9375,6.3125,0
83410,2.3125,-11.3125,5.8125,0
83430,4.25,-11.4375,6.125,0
83450,5.4375,-10.6875,4.9375,0
83470,6.3125,-10.0625,5,0
83490,4.9375,-11,6.25,0
83510,0.4375,-11.9375,6.25,0
83530,1.25,-10.9375,4.9375,0
83550,5.5625,-10.6875,4.25,0
83570,5.6875,-11.1875,4.125,0
83590,2.125,-11.4375,3.6875,0
83610,3.4375,-10.875,1.5625,0
83630,8.25,-10.5,0.3125,0
83650,8.9375,-11.8125,-0.3125,0
83670,5.125,-13.6875,0.5625,0
83690,5.0625,-13.125,-0.1875,0
83710,6.75,-13.125,-2.5625,0
83730,8.0625,-14.75,-0.5,0
83750,6.3125,-15.5,1.9375,0
83770,2.4375,-13.75,0,0
83790,1.5,-12.375,-0.4375,0
83810,4.125,-13.5,1.25,0
83830,3.375,-14.25,2,0
83850,3.25,-12.0625,0.6875,0
83870,3.6875,-11.0625,0.0625,0
83890,4,-11.8125,0.25,0
83910,4.875,-12.375,1.75,0
83930,5.25,-11.125,3.5625,0
83950,4.6875,-9.8125,2.3125,0
83970,3.125,-10.875,2.8125,0
83990,4.3125,-13.375,3.875,0
84010,7.1875,-14,4.5,0
84030,8,-13.5,3.5625,0
84050,4.875,-12.5,1.625,0
84070,0.1875,-13.1875,0.625,0
84090,-0.1875,-15.125,2.5,0
84110,6.5625,-15.6875,2.625,0
84130,10.0625,-15.1875,0.0625,0
84150,9.125,-15.3125,1.0625,0
84170,7.6875,-15.625,1.5625,0
84190,6.5,-14.875,0.875,0
84210,6.3125,-13.25,-0.75,0
84230,5.125,-14.0625,2.4375,0
84250,5.5,-15,4.25,0
84270,5.6875,-14.0625,0.875,0
84290,6.0625,-12.8125,0.5625,0
84310,5,-11.8125,2.0625,0
84330,2,-11.5625,3.625,0
84350,3,-9.75,5.125,0
84370,5.5625,-11.1875,5.4375,0
84390,6.3125,-12.1875,3.625,0
84410,5.25,-12.625,3.4375,0
84430,3.875,-12.8125,3.3125,0
84450,4.125,-13.875,2.8125,0
84470,5.0625,-12.8125,1,0
84490,5.75,-12.3125,0.6875,0
84510,6.0625,-12.625,2.4375,0
84530,7.375,-12.875,0.8125,0
84550,7.125,-11.6875,-1.875,0
84570,5.125,-9.375,-2,0
84590,3.3125,-10.8125,-1.875,0
84610,9.25,-11.25,-2.6875,0
84630,11.875,-11.25,-4.8125,0
84650,10.75,-11.6875,-7.25,0
84670,9.875,-11.5,-7.25,0
84690,11.5,-12.5625,-6.9375,0
84710,12.5,-12.8125,-8.4375,0
84730,11.5,-12.6875,-8.75,0
84750,12.875,-14.375,-10,0
84770,12.3125,-14.5625,-11.0625,0
84790,13.625,-12,-9.5625,0
84810,12.25,-12,-9.625,0
84830,8.875,-11.9375,-10.5625,0
84850,10.0625,-9.5,-10.8125,0
84870,9.3125,-7.625,-10.4375,0
84890,8.9375,-7.4375,-7.125,0
84910,9,-9.5625,-5.9375,0
84930,9.5,-9.25,-7.0625,0
84950,10.3125,-4.875,-7.625,0
84970,8.0625,-4,-6.6875,0
84990,6.8125,-5.75,-5.125,0
85010,6.3125,-5.25,-5.0625,0
85030,5.5,-0.25,-6.8125,0
85050,4.75,-1.4375,-6.3125,0
85070,5.1875,-4.125,-6,0
85090,8.0625,-3.25,-6.5625,0
85110,9.4375,-1.0625,-7.9375,0
85130,6.375,0.125,-9.3125,0
85150,4.5625,-1.8125,-8.375,0
85170,6.375,-3.8125,-9.3125,0
85190,8.9375,-3.375,-9.75,0
85210,7.625,-2.1875,-8.75,0
85230,6,-0.9375,-9.625,0
85250,6.8125,-0.625,-11.1875,0
85270,7.5,-1.25,-10.375,0
85290,6.375,-0.9375,-10.9375,0
85300,5.875,2.6875,-12.75,0
85320,7.625,3.625,-13.75,0
85330,7.375,1.9375,-13.375,0
