Timestamp, Angle x, Angle y, Angle z, Marker
30,-0.601303,0.63892,-2.85029,0
50,-0.59633,0.637064,-2.8467,0
70,-0.593951,0.636359,-2.84447,0
90,-0.594272,0.634574,-2.84393,0
110,-0.595439,0.631332,-2.84302,0
130,-0.593503,0.629631,-2.83927,0
150,-0.590904,0.630847,-2.83472,0
170,-0.589648,0.633088,-2.83272,0
190,-0.590662,0.632245,-2.83363,0
210,-0.591789,0.630112,-2.83284,0
210,-0.589965,0.629668,-2.82973,0
250,-0.589572,0.631229,-2.82767,0
270,-0.589319,0.634272,-2.82645,0
290,-0.590267,0.63772,-2.8276,0
300,-0.596026,0.64355,-2.83574,0
320,-0.597803,0.645461,-2.83883,0
340,-0.598558,0.646808,-2.84077,0
360,-0.59923,0.648126,-2.84411,0
370,-0.598974,0.649461,-2.84728,0
390,-0.597197,0.650313,-2.84891,0
410,-0.594908,0.65081,-2.84865,0
430,-0.593946,0.650963,-2.84826,0
450,-0.593184,0.652019,-2.84817,0
470,-0.592633,0.653622,-2.84746,0
490,-0.593359,0.655155,-2.84695,0
510,-0.596202,0.656555,-2.84735,0
530,-0.599784,0.657587,-2.84841,0
550,-0.602839,0.658416,-2.84942,0
570,-0.604143,0.65884,-2.85018,0
590,-0.60521,0.65862,-2.8513,0
610,-0.605112,0.658053,-2.85235,0
630,-0.604747,0.657132,-2.85326,0
650,-0.603733,0.655979,-2.85389,0
670,-0.602968,0.655329,-2.85404,0
690,-0.604037,0.655225,-2.85391,0
710,-0.60606,0.655392,-2.85374,0
730,-0.608351,0.655879,-2.85316,0
750,-0.610105,0.656397,-2.85258,0
770,-0.611688,0.656642,-2.85229,0
780,-0.612689,0.656875,-2.85196,0
800,-0.613517,0.656834,-2.85192,0
820,-0.613762,0.656778,-2.85183,0
840,-0.614345,0.656826,-2.85243,0
860,-0.614368,0.656765,-2.85297,0
880,-0.615379,0.657158,-2.85365,0
900,-0.61696,0.657751,-2.8543,0
920,-0.618794,0.65853,-2.85451,0
940,-0.620541,0.659474,-2.85391,0
960,-0.621388,0.660241,-2.85312,0
980,-0.621074,0.66107,-2.85215,0
1000,-0.619827,0.661017,-2.85132,0
1020,-0.618915,0.660351,-2.85185,0
1040,-0.618282,0.659581,-2.85242,0
1060,-0.618545,0.659222,-2.85324,0
1080,-0.619012,0.658767,-2.85393,0
1100,-0.619411,0.658493,-2.85469,0
1120,-0.619109,0.658255,-2.8555,0
1140,-0.617898,0.658382,-2.85657,0
1160,-0.617112,0.658384,-2.85632,0
1180,-0.616179,0.657522,-2.854,0
1200,-0.616348,0.657005,-2.85405,0
1220,-0.615246,0.659522,-2.85344,0
1240,-0.612359,0.663016,-2.85074,0
1260,-0.609137,0.66537,-2.8501,0
1280,-0.605489,0.6675,-2.85026,0
1300,-0.602074,0.667273,-2.84998,0
1320,-0.599704,0.666912,-2.85167,0
1340,-0.597888,0.666925,-2.85485,0
1360,-0.59517,0.666732,-2.85772,0
1380,-0.594484,0.66509,-2.85972,0
1400,-0.595415,0.663868,-2.86038,0
1420,-0.596638,0.663782,-2.86115,0
1440,-0.596083,0.663163,-2.86205,0
1460,-0.595008,0.661928,-2.86334,0
1480,-0.594081,0.660272,-2.86469,0
1500,-0.591154,0.658208,-2.86479,0
1520,-0.586122,0.655659,-2.86289,0
1540,-0.580852,0.652902,-2.86017,0
1560,-0.577966,0.651448,-2.8577,0
1580,-0.579115,0.65137,-2.85746,0
1600,-0.582669,0.652778,-2.85835,0
1620,-0.58528,0.65467,-2.8596,0
1640,-0.587953,0.655763,-2.86305,0
1660,-0.592881,0.655588,-2.86698,0
1680,-0.598321,0.654868,-2.87035,0
1700,-0.602408,0.654747,-2.87281,0
1720,-0.605295,0.654761,-2.87465,0
1740,-0.60807,0.654595,-2.87654,0
1760,-0.610403,0.654274,-2.87826,0
1780,-0.611721,0.6538,-2.87936,0
1800,-0.612367,0.652732,-2.88009,0
1820,-0.611858,0.651707,-2.88008,0
1830,-0.611048,0.650993,-2.87922,0
1850,-0.611408,0.650613,-2.87799,0
1870,-0.612722,0.650868,-2.8765,0
1890,-0.614695,0.651676,-2.87525,0
1910,-0.616999,0.652695,-2.87428,0
1930,-0.620589,0.65349,-2.87379,0
1950,-0.622829,0.654532,-2.87266,0
1980,-0.627497,0.658301,-2.87138,0
2000,-0.629431,0.659508,-2.8705,0
2020,-0.630729,0.660623,-2.8694,0
2040,-0.632092,0.661838,-2.86806,0
2060,-0.63379,0.663343,-2.86734,0
2080,-0.635333,0.66494,-2.86701,0
2100,-0.636603,0.665906,-2.8667,0
2120,-0.637273,0.667046,-2.86625,0
2140,-0.638413,0.668034,-2.86688,0
2160,-0.638977,0.667696,-2.86779,0
2180,-0.638678,0.667005,-2.86807,0
2200,-0.638217,0.666524,-2.86793,0
2220,-0.63804,0.666461,-2.8673,0
2240,-0.638631,0.666936,-2.86748,0
2260,-0.639204,0.667815,-2.86804,0
2280,-0.638821,0.668756,-2.8682,0
2300,-0.63835,0.668924,-2.8681,0
2320,-0.63836,0.668505,-2.86812,0
2340,-0.637706,0.667933,-2.86818,0
2360,-0.63669,0.667466,-2.86843,0
2380,-0.635439,0.66753,-2.86848,0
2400,-0.635611,0.667564,-2.86855,0
2420,-0.636122,0.667358,-2.86837,0
2440,-0.636625,0.666827,-2.86822,0
2460,-0.636601,0.666231,-2.86805,0
2480,-0.63598,0.665067,-2.8678,0
2500,-0.635144,0.664108,-2.86727,0
2520,-0.635123,0.663973,-2.86722,0
2540,-0.634903,0.664378,-2.86645,0
2560,-0.63432,0.664809,-2.86555,0
2580,-0.633962,0.665359,-2.86489,0
2600,-0.633248,0.665796,-2.86396,0
2620,-0.633211,0.666049,-2.86334,0
2640,-0.633069,0.665933,-2.86285,0
2660,-0.632615,0.66525,-2.8632,0
2680,-0.631371,0.664651,-2.86363,0
2700,-0.629957,0.664018,-2.86399,0
2720,-0.628635,0.663942,-2.86414,0
2730,-0.628095,0.663771,-2.86462,0
2750,-0.627843,0.663504,-2.86474,0
2770,-0.627843,0.663504,-2.86474,0
2790,-0.62817,0.66368,-2.86447,0
2810,-0.627865,0.664082,-2.86394,0
2830,-0.627029,0.664324,-2.86348,0
2850,-0.626077,0.664386,-2.86307,0
2870,-0.625083,0.664406,-2.86262,0
2890,-0.624485,0.664349,-2.86243,0
2910,-0.624485,0.664349,-2.86243,0
2930,-0.6236,0.664308,-2.86229,0
2950,-0.622465,0.664082,-2.86259,0
2970,-0.621895,0.663652,-2.86256,0
2990,-0.621895,0.663652,-2.86256,0
3010,-0.622077,0.664251,-2.86224,0
3030,-0.622043,0.66422,-2.86178,0
3050,-0.621887,0.664519,-2.86127,0
3070,-0.621711,0.664683,-2.8607,0
3090,-0.621541,0.664648,-2.86063,0
3110,-0.621541,0.664648,-2.86063,0
3130,-0.622012,0.66448,-2.86074,0
3150,-0.622012,0.66448,-2.86074,0
3170,-0.622012,0.66448,-2.86074,0
3190,-0.622012,0.66448,-2.86074,0
3210,-0.621719,0.664254,-2.86114,0
3230,-0.621426,0.664028,-2.86154,0
3250,-0.621134,0.663802,-2.86195,0
3270,-0.621134,0.663802,-2.86195,0
3290,-0.621134,0.663802,-2.86195,0
3310,-0.621134,0.663802,-2.86195,0
3330,-0.621134,0.663802,-2.86195,0
3350,-0.621154,0.663938,-2.86199,0
3370,-0.621154,0.663938,-2.86199,0
3390,-0.621304,0.663837,-2.86201,0
3410,-0.621304,0.663837,-2.86201,0
3430,-0.62165,0.664148,-2.86179,0
3450,-0.622241,0.664402,-2.86148,0
3470,-0.622683,0.664758,-2.86116,0
3490,-0.623179,0.664968,-2.86095,0
3510,-0.62337,0.665057,-2.86075,0
3530,-0.62337,0.665057,-2.86075,0
3550,-0.623411,0.665099,-2.86079,0
3570,-0.62337,0.665057,-2.86075,0
3590,-0.624193,0.665003,-2.86113,0
3610,-0.624193,0.665003,-2.86113,0
3630,-0.624949,0.665052,-2.86125,0
3650,-0.624949,0.665052,-2.86125,0
3670,-0.624949,0.665052,-2.86125,0
3690,-0.624908,0.66501,-2.8612,0
3710,-0.624908,0.66501,-2.8612,0
3730,-0.624928,0.665146,-2.86125,0
3750,-0.624868,0.66482,-2.86143,0
3770,-0.625052,0.664667,-2.86158,0
3790,-0.625029,0.664321,-2.86244,0
3810,-0.624138,0.663367,-2.86345,0
3830,-0.622122,0.662121,-2.86402,0
3850,-0.620001,0.661376,-2.86344,0
3870,-0.61919,0.66121,-2.86259,0
3900,-0.618792,0.662209,-2.86039,0
3920,-0.619206,0.662625,-2.85952,0
3940,-0.620367,0.662998,-2.85885,0
3960,-0.620941,0.663326,-2.85758,0
3980,-0.620986,0.66428,-2.85647,0
4000,-0.621357,0.665755,-2.85601,0
4020,-0.621795,0.666866,-2.85521,0
4040,-0.622189,0.667383,-2.85435,0
4060,-0.622899,0.667592,-2.85393,0
4080,-0.623379,0.667439,-2.85362,0
4100,-0.623931,0.667737,-2.8536,0
4120,-0.625071,0.668757,-2.85339,0
4140,-0.627723,0.67002,-2.85356,0
4160,-0.630341,0.671094,-2.85397,0
4180,-0.633648,0.671705,-2.85487,0
4200,-0.636783,0.671573,-2.85594,0
4220,-0.637685,0.670521,-2.8569,0
4240,-0.635437,0.668274,-2.85766,0
4260,-0.63145,0.665712,-2.85797,0
4280,-0.628659,0.663583,-2.85777,0
4300,-0.624171,0.661207,-2.85646,0
4320,-0.619633,0.658646,-2.85548,0
4340,-0.6141,0.655457,-2.85421,0
4360,-0.608038,0.651452,-2.85436,0
4380,-0.602437,0.648809,-2.85506,0
4400,-0.596214,0.64642,-2.85522,0
4420,-0.590398,0.643928,-2.85628,0
4440,-0.585807,0.641692,-2.85809,0
4460,-0.580059,0.639151,-2.8592,0
4480,-0.573361,0.635609,-2.85976,0
4500,-0.5662,0.632437,-2.8591,0
4520,-0.559728,0.630089,-2.85761,0
4540,-0.554786,0.629085,-2.85594,0
4560,-0.550922,0.630027,-2.85314,0
4580,-0.548332,0.632357,-2.84938,0
4600,-0.549176,0.634898,-2.84667,0
4620,-0.553342,0.637223,-2.845,0
4640,-0.559122,0.639231,-2.84444,0
4660,-0.563619,0.64121,-2.84377,0
4680,-0.566263,0.642913,-2.84287,0
4700,-0.567949,0.64413,-2.84175,0
4720,-0.56777,0.645194,-2.84086,0
4740,-0.567784,0.645329,-2.84091,0
4760,-0.567361,0.645268,-2.84143,0
4780,-0.567908,0.644958,-2.84276,0
4800,-0.568499,0.644189,-2.84508,0
4820,-0.569485,0.643393,-2.8478,0
4840,-0.570779,0.642212,-2.85105,0
4860,-0.572701,0.640576,-2.85451,0
4880,-0.57404,0.639346,-2.85705,0
4900,-0.574707,0.638799,-2.85876,0
4920,-0.575233,0.6389,-2.85963,0
4940,-0.573951,0.639311,-2.85908,0
4960,-0.572073,0.640081,-2.85791,0
4980,-0.570146,0.640992,-2.85619,0
5000,-0.568652,0.642142,-2.85453,0
5020,-0.567227,0.64283,-2.85263,0
5040,-0.565559,0.643579,-2.85081,0
5060,-0.564542,0.644374,-2.84934,0
5080,-0.563243,0.645191,-2.84791,0
5100,-0.562538,0.645968,-2.84707,0
5120,-0.562388,0.64607,-2.84705,0
5140,-0.561531,0.646404,-2.84701,0
5160,-0.561713,0.646397,-2.84803,0
5180,-0.562025,0.646064,-2.84912,0
5200,-0.563035,0.645958,-2.85106,0
5220,-0.563543,0.645702,-2.85267,0
5240,-0.563905,0.645231,-2.85431,0
5260,-0.564273,0.645127,-2.85603,0
5280,-0.565734,0.644764,-2.85857,0
5300,-0.566122,0.64425,-2.86075,0
5320,-0.566377,0.643976,-2.86295,0
5340,-0.567372,0.643732,-2.86484,0
5360,-0.568682,0.643644,-2.86645,0
5380,-0.570131,0.64354,-2.86725,0
5400,-0.571387,0.644082,-2.86735,0
5420,-0.572463,0.644457,-2.86735,0
5440,-0.57314,0.644951,-2.86728,0
5460,-0.572935,0.644878,-2.86718,0
5480,-0.573464,0.644929,-2.8675,0
5500,-0.573681,0.644732,-2.86778,0
5520,-0.573822,0.644631,-2.86822,0
5540,-0.574617,0.644573,-2.869,0
5560,-0.575323,0.644386,-2.86956,0
5580,-0.575488,0.644418,-2.86962,0
5600,-0.575488,0.644418,-2.86962,0
5620,-0.575505,0.644554,-2.86967,0
5640,-0.575505,0.644554,-2.86967,0
5660,-0.575175,0.644489,-2.86954,0
5680,-0.57428,0.644511,-2.86928,0
5700,-0.572941,0.644843,-2.86897,0
5720,-0.572303,0.644937,-2.86867,0
5740,-0.57199,0.645008,-2.86859,0
5760,-0.571676,0.645079,-2.8685,0
5790,-0.571197,0.645208,-2.86868,0
5810,-0.570479,0.645311,-2.86862,0
5830,-0.56979,0.645088,-2.86852,0
5850,-0.569056,0.645056,-2.86841,0
5870,-0.568567,0.645046,-2.86813,0
5890,-0.567452,0.645178,-2.86768,0
5900,-0.566543,0.645064,-2.86738,0
5920,-0.565428,0.64497,-2.8673,0
5940,-0.564388,0.64487,-2.8674,0
5960,-0.563185,0.64442,-2.86747,0
5980,-0.56195,0.644017,-2.86741,0
6000,-0.560437,0.643639,-2.8674,0
6020,-0.559021,0.643387,-2.8672,0
6040,-0.558044,0.643055,-2.8671,0
6060,-0.556765,0.642875,-2.86641,0
6080,-0.554792,0.642618,-2.86575,0
6100,-0.552432,0.642532,-2.86517,0
6110,-0.550847,0.642198,-2.86477,0
6130,-0.549754,0.641559,-2.8647,0
6150,-0.549034,0.641298,-2.86455,0
6170,-0.548042,0.641149,-2.86437,0
6190,-0.547036,0.640864,-2.86414,0
6210,-0.545784,0.640502,-2.86355,0
6230,-0.545124,0.6401,-2.86354,0
6250,-0.544323,0.639486,-2.86355,0
6270,-0.543551,0.639145,-2.86366,0
6290,-0.542883,0.638976,-2.86369,0
6310,-0.542883,0.638976,-2.86369,0
6330,-0.542883,0.638976,-2.86369,0
6350,-0.542883,0.638976,-2.86369,0
6370,-0.542686,0.638989,-2.86349,0
6390,-0.542883,0.638976,-2.86369,0
6410,-0.542883,0.638976,-2.86369,0
6430,-0.542883,0.638976,-2.86369,0
6450,-0.542848,0.639021,-2.86356,0
6470,-0.543042,0.639229,-2.86338,0
6490,-0.543823,0.639032,-2.86369,0
6510,-0.544424,0.638762,-2.86423,0
6530,-0.544586,0.638487,-2.86476,0
6550,-0.545141,0.639022,-2.86438,0
6570,-0.546602,0.639883,-2.8635,0
6590,-0.547996,0.640305,-2.86319,0
6610,-0.547996,0.640305,-2.86319,0
6630,-0.547631,0.640072,-2.86372,0
6650,-0.547491,0.639636,-2.86412,0
6670,-0.54745,0.639006,-2.86436,0
6690,-0.547612,0.639038,-2.86442,0
6710,-0.548153,0.63913,-2.86446,0
6730,-0.549358,0.63971,-2.86442,0
6750,-0.550655,0.640328,-2.86427,0
6770,-0.551387,0.640949,-2.86408,0
6790,-0.55186,0.641133,-2.86386,0
6810,-0.552421,0.641046,-2.86398,0
6830,-0.552421,0.641046,-2.86398,0
6850,-0.551929,0.641043,-2.86412,0
6870,-0.550992,0.640975,-2.8637,0
6890,-0.551196,0.640954,-2.86347,0
6910,-0.552313,0.640814,-2.8635,0
6930,-0.552935,0.640896,-2.8633,0
6950,-0.553216,0.641461,-2.86297,0
6970,-0.553781,0.641684,-2.86263,0
6990,-0.553859,0.641896,-2.86202,0
7010,-0.553859,0.641896,-2.86202,0
7030,-0.55393,0.642116,-2.86182,0
7050,-0.554333,0.642082,-2.8618,0
7070,-0.555082,0.641932,-2.86198,0
7090,-0.55564,0.642163,-2.86207,0
7110,-0.55656,0.642413,-2.86241,0
7130,-0.557012,0.64247,-2.86255,0
7150,-0.557012,0.64247,-2.86255,0
7170,-0.55762,0.642791,-2.86281,0
7190,-0.558674,0.642802,-2.86313,0
7210,-0.559276,0.642756,-2.8633,0
7230,-0.559912,0.642663,-2.8636,0
7250,-0.559912,0.642663,-2.8636,0
7270,-0.560315,0.64263,-2.86357,0
7290,-0.560315,0.64263,-2.86357,0
7310,-0.560315,0.64263,-2.86357,0
7330,-0.561081,0.642617,-2.8638,0
7350,-0.561755,0.642791,-2.86377,0
7370,-0.562719,0.642989,-2.86383,0
7390,-0.563485,0.643202,-2.86369,0
7410,-0.563938,0.643486,-2.86347,0
7430,-0.563954,0.643622,-2.86352,0
7450,-0.563954,0.643622,-2.86352,0
7470,-0.563954,0.643622,-2.86352,0
7490,-0.563954,0.643622,-2.86352,0
7510,-0.563954,0.643622,-2.86352,0
7530,-0.564118,0.643655,-2.86358,0
7550,-0.564118,0.643655,-2.86358,0
7570,-0.564118,0.643655,-2.86358,0
7590,-0.564118,0.643655,-2.86358,0
7610,-0.564118,0.643655,-2.86358,0
7630,-0.564118,0.643655,-2.86358,0
7650,-0.564118,0.643655,-2.86358,0
7670,-0.564629,0.643797,-2.86349,0
7690,-0.564645,0.643933,-2.86354,0
7710,-0.564645,0.643933,-2.86354,0
7730,-0.564645,0.643933,-2.86354,0
7750,-0.564645,0.643933,-2.86354,0
7770,-0.564645,0.643933,-2.86354,0
7790,-0.564645,0.643933,-2.86354,0
7810,-0.564809,0.643966,-2.8636,0
7830,-0.56477,0.643925,-2.86356,0
7850,-0.564514,0.643854,-2.8636,0
7870,-0.564465,0.643538,-2.8638,0
7890,-0.564465,0.643538,-2.8638,0
7910,-0.564301,0.643505,-2.86373,0
7930,-0.564465,0.643538,-2.8638,0
7950,-0.564465,0.643538,-2.8638,0
7970,-0.564373,0.643726,-2.86354,0
7990,-0.564099,0.644064,-2.86313,0
8010,-0.564065,0.64411,-2.863,0
8030,-0.56424,0.644192,-2.86319,0
8050,-0.564099,0.644064,-2.86313,0
8070,-0.56424,0.644192,-2.86319,0
8080,-0.56424,0.644192,-2.86319,0
8100,-0.56424,0.644192,-2.86319,0
8120,-0.56424,0.644192,-2.86319,0
8140,-0.56424,0.644192,-2.86319,0
8160,-0.56424,0.644192,-2.86319,0
8180,-0.564774,0.644239,-2.8631,0
8200,-0.565502,0.644185,-2.86329,0
8220,-0.56603,0.644464,-2.86324,0
8240,-0.56603,0.644464,-2.86324,0
8260,-0.566466,0.644704,-2.86331,0
8280,-0.566591,0.644697,-2.86333,0
8300,-0.566591,0.644697,-2.86333,0
8320,-0.566607,0.644832,-2.86337,0
8340,-0.566607,0.644832,-2.86337,0
8360,-0.566607,0.644832,-2.86337,0
8380,-0.566771,0.644865,-2.86344,0
8400,-0.566771,0.644865,-2.86344,0
8420,-0.566771,0.644865,-2.86344,0
8440,-0.567153,0.644929,-2.86342,0
8460,-0.568052,0.644995,-2.86358,0
8480,-0.568399,0.645106,-2.86343,0
8500,-0.568929,0.645067,-2.86343,0
8520,-0.569449,0.64498,-2.86329,0
8540,-0.570143,0.645292,-2.86331,0
8560,-0.57049,0.645403,-2.86316,0
8580,-0.57049,0.645403,-2.86316,0
8600,-0.571234,0.645805,-2.86335,0
8620,-0.57193,0.645799,-2.86341,0
8640,-0.572858,0.646051,-2.86376,0
8660,-0.57372,0.646079,-2.86389,0
8680,-0.57372,0.646079,-2.86389,0
8700,-0.57372,0.646079,-2.86389,0
8720,-0.57368,0.646038,-2.86384,0
8740,-0.573845,0.646071,-2.86391,0
8760,-0.573845,0.646071,-2.86391,0
8780,-0.574434,0.645891,-2.86403,0
8800,-0.575079,0.646115,-2.86388,0
8820,-0.575724,0.646341,-2.86373,0
8840,-0.57584,0.646515,-2.86325,0
8860,-0.575823,0.646698,-2.86316,0
8880,-0.575817,0.64661,-2.86325,0
8900,-0.575833,0.646746,-2.8633,0
8920,-0.575833,0.646746,-2.8633,0
8940,-0.575999,0.646779,-2.86336,0
8960,-0.575833,0.646746,-2.8633,0
8980,-0.575799,0.646793,-2.86317,0
9000,-0.575999,0.646779,-2.86336,0
9020,-0.575965,0.646826,-2.86323,0
9040,-0.575999,0.646779,-2.86336,0
9060,-0.575999,0.646779,-2.86336,0
9080,-0.576181,0.646948,-2.86347,0
9100,-0.576141,0.646907,-2.86343,0
9120,-0.576181,0.646948,-2.86347,0
9140,-0.576141,0.646907,-2.86343,0
9160,-0.576141,0.646907,-2.86343,0
9180,-0.576141,0.646907,-2.86343,0
9200,-0.576141,0.646907,-2.86343,0
9220,-0.576141,0.646907,-2.86343,0
9240,-0.576141,0.646907,-2.86343,0
9260,-0.576157,0.647043,-2.86347,0
9280,-0.576165,0.647041,-2.86306,0
9300,-0.576006,0.647326,-2.86254,0
9320,-0.575813,0.647658,-2.86189,0
9340,-0.575598,0.647766,-2.86128,0
9360,-0.575598,0.647766,-2.86128,0
9380,-0.575598,0.647766,-2.86128,0
9400,-0.575448,0.647869,-2.86126,0
9420,-0.575414,0.647916,-2.86113,0
9440,-0.575614,0.647902,-2.86132,0
9460,-0.574775,0.648007,-2.86083,0
9480,-0.574201,0.648323,-2.86075,0
9500,-0.574201,0.648323,-2.86075,0
9520,-0.574201,0.648323,-2.86075,0
9540,-0.574201,0.648323,-2.86075,0
9560,-0.574201,0.648323,-2.86075,0
9580,-0.574201,0.648323,-2.86075,0
9600,-0.574201,0.648323,-2.86075,0
9620,-0.574201,0.648323,-2.86075,0
9640,-0.574201,0.648323,-2.86075,0
9660,-0.574201,0.648323,-2.86075,0
9680,-0.574201,0.648323,-2.86075,0
9700,-0.574161,0.648282,-2.8607,0
9720,-0.574161,0.648282,-2.8607,0
9740,-0.574178,0.648418,-2.86075,0
9760,-0.574178,0.648418,-2.86075,0
9780,-0.574178,0.648418,-2.86075,0
9800,-0.574343,0.648451,-2.86081,0
9820,-0.573744,0.648264,-2.86059,0
9840,-0.573744,0.648264,-2.86059,0
9860,-0.573744,0.648264,-2.86059,0
9880,-0.573744,0.648264,-2.86059,0
9900,-0.573761,0.6484,-2.86064,0
9920,-0.573761,0.6484,-2.86064,0
9940,-0.573761,0.6484,-2.86064,0
9960,-0.573744,0.648264,-2.86059,0
9980,-0.573744,0.648264,-2.86059,0
10000,-0.573744,0.648264,-2.86059,0
10020,-0.573721,0.648359,-2.8606,0
10040,-0.573721,0.648359,-2.8606,0
10060,-0.573721,0.648359,-2.8606,0
10080,-0.573721,0.648359,-2.8606,0
10100,-0.573886,0.648392,-2.86066,0
10120,-0.573886,0.648392,-2.86066,0
10140,-0.573886,0.648392,-2.86066,0
10160,-0.573903,0.648528,-2.86071,0
10180,-0.573903,0.648528,-2.86071,0
10200,-0.573903,0.648528,-2.86071,0
10220,-0.574144,0.648465,-2.86062,0
10240,-0.574144,0.648465,-2.86062,0
10260,-0.574144,0.648465,-2.86062,0
10280,-0.574144,0.648465,-2.86062,0
10300,-0.574144,0.648465,-2.86062,0
10320,-0.574144,0.648465,-2.86062,0
10340,-0.574144,0.648465,-2.86062,0
10360,-0.574899,0.648319,-2.86081,0
10370,-0.575521,0.648411,-2.86103,0
10390,-0.575928,0.648381,-2.861,0
10410,-0.575928,0.648381,-2.861,0
10430,-0.575928,0.648381,-2.861,0
10450,-0.575904,0.648477,-2.861,0
10470,-0.575904,0.648477,-2.861,0
10490,-0.575904,0.648477,-2.861,0
10510,-0.575888,0.648341,-2.86096,0
10530,-0.576653,0.648561,-2.86124,0
10550,-0.576653,0.648561,-2.86124,0
10570,-0.576493,0.648847,-2.86072,0
10590,-0.576185,0.649234,-2.86018,0
10610,-0.576666,0.649429,-2.85997,0
10630,-0.57713,0.649487,-2.8597,0
10650,-0.577296,0.649521,-2.85977,0
10670,-0.577296,0.649521,-2.85977,0
10690,-0.576689,0.649564,-2.8596,0
10710,-0.576066,0.649471,-2.85938,0
10730,-0.575667,0.649269,-2.85935,0
10750,-0.575832,0.649302,-2.85942,0
10770,-0.575667,0.649269,-2.85935,0
10790,-0.575832,0.649302,-2.85942,0
10810,-0.575832,0.649302,-2.85942,0
10830,-0.575832,0.649302,-2.85942,0
10850,-0.575792,0.649262,-2.85938,0
10870,-0.575792,0.649262,-2.85938,0
10890,-0.575792,0.649262,-2.85938,0
10910,-0.575792,0.649262,-2.85938,0
10930,-0.575792,0.649262,-2.85938,0
10950,-0.575809,0.649397,-2.85942,0
10970,-0.575974,0.649431,-2.85949,0
10990,-0.575974,0.649431,-2.85949,0
11010,-0.575974,0.649431,-2.85949,0
11030,-0.575974,0.649431,-2.85949,0
11050,-0.575974,0.649431,-2.85949,0
11070,-0.575974,0.649431,-2.85949,0
11090,-0.57614,0.649464,-2.85955,0
11110,-0.57614,0.649464,-2.85955,0
11130,-0.57614,0.649464,-2.85955,0
11150,-0.57614,0.649464,-2.85955,0
11170,-0.57614,0.649464,-2.85955,0
11190,-0.57614,0.649464,-2.85955,0
11210,-0.5761,0.649424,-2.85951,0
11230,-0.576765,0.649238,-2.85981,0
11250,-0.57693,0.649271,-2.85988,0
11270,-0.57693,0.649271,-2.85988,0
11290,-0.57693,0.649271,-2.85988,0
11310,-0.577721,0.649308,-2.85983,0
11330,-0.579524,0.650008,-2.85861,0
11350,-0.58175,0.650961,-2.85596,0
11370,-0.584125,0.652523,-2.85264,0
11390,-0.582156,0.651811,-2.84636,0
11410,-0.572012,0.647957,-2.84086,0
11430,-0.564295,0.639102,-2.83491,0
11450,-0.561335,0.623671,-2.8268,0
11470,-0.560595,0.600487,-2.82071,0
11480,-0.562876,0.571326,-2.81558,0
11500,-0.565042,0.535164,-2.80951,0
11520,-0.566217,0.493594,-2.80116,0
11540,-0.565669,0.445522,-2.79191,0
11560,-0.564993,0.392752,-2.783,0
11580,-0.568123,0.337712,-2.77428,0
11600,-0.575734,0.282209,-2.7641,0
11620,-0.58844,0.227283,-2.75332,0
11640,-0.604176,0.173886,-2.74183,0
11660,-0.621718,0.123549,-2.72902,0
11680,-0.641408,0.076343,-2.71599,0
11700,-0.661358,0.0322463,-2.70349,0
11740,-0.708001,-0.0426606,-2.67562,0
11770,-0.756926,-0.0972524,-2.65391,0
11790,-0.780717,-0.117785,-2.64531,0
11810,-0.805294,-0.134241,-2.63668,0
11830,-0.828246,-0.146822,-2.63029,0
11850,-0.846839,-0.157389,-2.62678,0
11870,-0.863323,-0.165966,-2.6226,0
11890,-0.880713,-0.173782,-2.6171,0
11910,-0.89767,-0.180963,-2.61301,0
11930,-0.913507,-0.187871,-2.61046,0
11950,-0.926993,-0.193997,-2.60776,0
11970,-0.938146,-0.200771,-2.60494,0
11990,-0.947001,-0.206525,-2.60213,0
12010,-0.956303,-0.210576,-2.599,0
12030,-0.964558,-0.214079,-2.59661,0
12050,-0.972357,-0.2178,-2.59471,0
12070,-0.980769,-0.220221,-2.59225,0
12090,-0.990725,-0.220289,-2.58904,0
12110,-1.00121,-0.219445,-2.58605,0
12130,-1.01065,-0.217897,-2.583,0
12150,-1.02028,-0.216089,-2.5785,0
12170,-1.02916,-0.214118,-2.57456,0
12190,-1.03709,-0.211367,-2.57156,0
12210,-1.04622,-0.208596,-2.56804,0
12230,-1.05316,-0.206589,-2.56498,0
12250,-1.05802,-0.205045,-2.56323,0
12270,-1.06225,-0.203184,-2.56258,0
12290,-1.06622,-0.201651,-2.56159,0
12310,-1.06912,-0.199964,-2.56036,0
12330,-1.07251,-0.197995,-2.55997,0
12350,-1.07701,-0.19557,-2.56034,0
12370,-1.08144,-0.194036,-2.56034,0
12390,-1.08516,-0.193084,-2.5595,0
12410,-1.08796,-0.191863,-2.55778,0
12430,-1.08947,-0.190762,-2.55578,0
12450,-1.09086,-0.191036,-2.55371,0
12470,-1.09262,-0.192149,-2.55194,0
12490,-1.0945,-0.191708,-2.54991,0
12510,-1.0973,-0.191497,-2.54818,0
12530,-1.10068,-0.192072,-2.54617,0
12550,-1.10402,-0.191778,-2.54403,0
12570,-1.10544,-0.191803,-2.54209,0
12590,-1.10543,-0.191757,-2.54046,0
12610,-1.10523,-0.191698,-2.5395,0
12630,-1.10572,-0.192023,-2.53871,0
12650,-1.10693,-0.192614,-2.53793,0
12670,-1.10861,-0.193874,-2.53712,0
12690,-1.10888,-0.195209,-2.53639,0
12710,-1.1078,-0.195997,-2.53544,0
12730,-1.10667,-0.196943,-2.5345,0
12750,-1.10609,-0.198637,-2.53398,0
12770,-1.10535,-0.200019,-2.53312,0
12790,-1.10476,-0.20149,-2.532,0
12810,-1.10384,-0.203621,-2.53079,0
12830,-1.10194,-0.206671,-2.52884,0
12850,-1.09911,-0.209631,-2.52662,0
12870,-1.09841,-0.212617,-2.52486,0
12890,-1.09771,-0.216488,-2.52224,0
12910,-1.0975,-0.220034,-2.51897,0
12930,-1.09675,-0.222609,-2.51485,0
12950,-1.09712,-0.225486,-2.5115,0
12970,-1.0969,-0.228996,-2.50838,0
12990,-1.09615,-0.231542,-2.505,0
13010,-1.09577,-0.233993,-2.5008,0
13030,-1.09489,-0.237348,-2.49789,0
13050,-1.09289,-0.240804,-2.49542,0
13070,-1.09076,-0.243913,-2.49278,0
13090,-1.08966,-0.248079,-2.49011,0
13110,-1.08836,-0.252504,-2.48714,0
13130,-1.08556,-0.256239,-2.48501,0
13150,-1.08339,-0.259917,-2.48305,0
13170,-1.08116,-0.264506,-2.48211,0
13190,-1.07879,-0.269211,-2.47993,0
13210,-1.07526,-0.275141,-2.47714,0
13230,-1.07061,-0.280958,-2.4744,0
13250,-1.06644,-0.287247,-2.47106,0
13270,-1.06231,-0.294712,-2.46783,0
13290,-1.05586,-0.302403,-2.46611,0
13310,-1.04953,-0.307909,-2.46507,0
13330,-1.04426,-0.313649,-2.46408,0
13350,-1.03788,-0.321617,-2.46409,0
13370,-1.03021,-0.328377,-2.46383,0
13390,-1.02566,-0.332837,-2.46528,0
13400,-1.02119,-0.338601,-2.46599,0
13420,-1.01179,-0.345431,-2.46598,0
13440,-1.0015,-0.349344,-2.46496,0
13460,-0.99535,-0.353004,-2.46719,0
13480,-0.995247,-0.356405,-2.46962,0
13500,-1.0045,-0.357192,-2.47227,0
13520,-1.0063,-0.356903,-2.47292,0
13540,-1.0047,-0.355781,-2.47204,0
13560,-1.00139,-0.357396,-2.47108,0
13580,-0.997013,-0.359564,-2.47128,0
13600,-0.993764,-0.361268,-2.47241,0
13620,-0.994314,-0.363405,-2.47389,0
13640,-0.99752,-0.364463,-2.47423,0
13660,-0.99972,-0.364289,-2.47344,0
13690,-1.00181,-0.359782,-2.47358,0
13730,-1.00652,-0.352759,-2.47495,0
13750,-1.00683,-0.349025,-2.47692,0
13760,-1.01283,-0.343565,-2.47927,0
13780,-1.02259,-0.33497,-2.48248,0
13800,-1.03154,-0.329643,-2.48701,0
13820,-1.03945,-0.326133,-2.49059,0
13840,-1.04667,-0.320634,-2.49212,0
13860,-1.05059,-0.316217,-2.49412,0
13880,-1.05075,-0.313327,-2.49661,0
13900,-1.05432,-0.310181,-2.49817,0
13920,-1.05983,-0.307133,-2.50022,0
13940,-1.06659,-0.303884,-2.50272,0
13960,-1.07197,-0.300299,-2.50452,0
13980,-1.07454,-0.295413,-2.50723,0
14000,-1.07753,-0.292568,-2.50986,0
14020,-1.07827,-0.289476,-2.51048,0
14040,-1.07738,-0.286174,-2.51083,0
14060,-1.07802,-0.284608,-2.51192,0
14080,-1.0804,-0.282441,-2.51244,0
14100,-1.08475,-0.280507,-2.51259,0
14120,-1.08548,-0.280041,-2.51369,0
14140,-1.08419,-0.279026,-2.51462,0
14160,-1.08391,-0.279258,-2.51492,0
14180,-1.0853,-0.280473,-2.51653,0
14200,-1.08703,-0.282495,-2.51917,0
14220,-1.08945,-0.284093,-2.52135,0
14240,-1.09173,-0.285808,-2.52308,0
14260,-1.09239,-0.287645,-2.52385,0
14280,-1.09467,-0.288234,-2.52393,0
14300,-1.09791,-0.28828,-2.52532,0
14320,-1.10343,-0.28971,-2.52733,0
14340,-1.1082,-0.290196,-2.52817,0
14360,-1.11205,-0.289575,-2.52838,0
14380,-1.1155,-0.290069,-2.52923,0
14400,-1.12026,-0.28907,-2.52887,0
14420,-1.12493,-0.289142,-2.52923,2000
14440,-1.12606,-0.288355,-2.52942,0
14460,-1.12698,-0.28461,-2.528,0
14480,-1.12643,-0.282682,-2.52695,0
14500,-1.12684,-0.283198,-2.52587,0
14520,-1.12581,-0.282918,-2.52499,0
14540,-1.12401,-0.282972,-2.52388,0
14560,-1.12325,-0.283399,-2.52348,0
14580,-1.12326,-0.28334,-2.5234,0
14600,-1.12097,-0.28245,-2.52336,0
14620,-1.1168,-0.281482,-2.52458,0
14640,-1.11472,-0.281196,-2.52642,0
14660,-1.11502,-0.280184,-2.52694,0
14680,-1.11456,-0.279906,-2.52761,0
14700,-1.11263,-0.279181,-2.52851,0
14720,-1.11103,-0.277815,-2.52899,0
14740,-1.11007,-0.277055,-2.52973,0
14760,-1.11083,-0.275556,-2.53013,0
14780,-1.11223,-0.273789,-2.53008,0
14800,-1.11303,-0.27179,-2.53018,0
14820,-1.11307,-0.269739,-2.52992,0
14840,-1.1133,-0.269495,-2.52986,0
14860,-1.11522,-0.268917,-2.52912,0
14880,-1.11627,-0.268112,-2.52822,0
14900,-1.11745,-0.268392,-2.52757,0
14920,-1.1184,-0.268981,-2.52632,0
14940,-1.1193,-0.269274,-2.52428,0
14960,-1.12064,-0.270105,-2.52309,0
14980,-1.12148,-0.270837,-2.52282,0
15000,-1.12235,-0.270894,-2.52248,0
15020,-1.12345,-0.270726,-2.52158,0
15040,-1.12418,-0.270578,-2.5206,0
15060,-1.12295,-0.270238,-2.52031,0
15080,-1.1218,-0.269791,-2.51963,0
15100,-1.12242,-0.268844,-2.51752,0
15120,-1.12364,-0.269103,-2.51507,0
15140,-1.12268,-0.270137,-2.51246,0
15160,-1.12067,-0.26999,-2.50927,0
15180,-1.11971,-0.270854,-2.50558,0
15200,-1.12079,-0.272634,-2.50137,0
15220,-1.12235,-0.275047,-2.49712,0
15240,-1.12262,-0.27737,-2.49293,0
15260,-1.12197,-0.278686,-2.48904,0
15280,-1.11996,-0.280697,-2.48595,0
15300,-1.11877,-0.283053,-2.48329,0
15320,-1.11832,-0.285349,-2.4808,0
15340,-1.11767,-0.287421,-2.47841,0
15360,-1.11581,-0.289607,-2.47564,0
15380,-1.11418,-0.291936,-2.47295,0
15400,-1.11253,-0.29478,-2.4708,0
15420,-1.11171,-0.297885,-2.46818,0
15440,-1.10996,-0.300986,-2.46505,0
15460,-1.10833,-0.303851,-2.46186,0
15480,-1.10785,-0.307359,-2.45919,0
15500,-1.10733,-0.310666,-2.45723,0
15520,-1.10681,-0.312623,-2.45568,0
15540,-1.10697,-0.313313,-2.45448,0
15560,-1.10665,-0.313913,-2.45397,0
15580,-1.10507,-0.315115,-2.45366,0
15600,-1.10205,-0.315846,-2.45378,0
15620,-1.09968,-0.316586,-2.45339,0
15640,-1.09743,-0.318146,-2.45257,0
15660,-1.09475,-0.320321,-2.45146,0
15680,-1.09181,-0.323572,-2.45045,0
15700,-1.08916,-0.327564,-2.44921,0
15720,-1.08568,-0.331619,-2.44736,0
15740,-1.08156,-0.336481,-2.44612,0
15760,-1.07795,-0.340975,-2.44525,0
15780,-1.07476,-0.345061,-2.44446,0
15800,-1.07026,-0.350536,-2.44291,0
15820,-1.06414,-0.356919,-2.44137,0
15830,-1.05782,-0.363692,-2.44015,0
15850,-1.04996,-0.371358,-2.43981,0
15870,-1.04187,-0.379083,-2.44072,0
15890,-1.02701,-0.395196,-2.44246,0
15910,-1.01984,-0.402736,-2.44395,0
15930,-1.01162,-0.409738,-2.44609,0
15950,-1.00252,-0.417246,-2.44788,0
15970,-0.995311,-0.424879,-2.44973,0
15990,-0.988427,-0.431601,-2.45221,0
16010,-0.98171,-0.438157,-2.45451,0
16030,-0.975595,-0.443642,-2.45724,0
16050,-0.970565,-0.449286,-2.45894,0
16070,-0.966378,-0.454248,-2.461,0
16090,-0.961018,-0.45862,-2.46393,0
16110,-0.957474,-0.461324,-2.4673,0
16130,-0.954585,-0.464415,-2.47018,0
16150,-0.950057,-0.468346,-2.47375,0
16170,-0.945067,-0.473054,-2.47713,0
16190,-0.940589,-0.477351,-2.48062,0
16210,-0.93654,-0.481429,-2.48424,0
16230,-0.931935,-0.486311,-2.4884,0
16250,-0.927968,-0.491138,-2.49283,0
16270,-0.924669,-0.496149,-2.49737,0
16290,-0.921742,-0.501137,-2.50174,0
16310,-0.918467,-0.505646,-2.50595,0
16330,-0.915174,-0.509843,-2.5102,0
16350,-0.912436,-0.514325,-2.51471,0
16370,-0.908005,-0.51905,-2.52051,0
16390,-0.903853,-0.523105,-2.52565,0
16410,-0.900727,-0.526924,-2.53078,0
16430,-0.898097,-0.531488,-2.53613,0
16450,-0.895357,-0.536505,-2.54185,0
16470,-0.893592,-0.541017,-2.54717,0
16490,-0.891655,-0.544824,-2.55301,0
16510,-0.889786,-0.54791,-2.55974,0
16530,-0.888069,-0.550835,-2.56582,0
16550,-0.886064,-0.554431,-2.57232,0
16570,-0.883205,-0.557395,-2.57922,0
16590,-0.880545,-0.560242,-2.58669,0
16610,-0.877667,-0.563004,-2.59396,0
16630,-0.875041,-0.566456,-2.60117,0
16650,-0.871556,-0.569696,-2.60837,0
16670,-0.867438,-0.573191,-2.61606,0
16690,-0.863842,-0.576024,-2.62385,0
16710,-0.860711,-0.579243,-2.63168,0
16730,-0.857051,-0.58228,-2.63974,0
16740,-0.853447,-0.585266,-2.64736,0
16760,-0.849784,-0.588462,-2.65521,0
16780,-0.846574,-0.591613,-2.6631,0
16800,-0.844058,-0.594175,-2.67093,0
16820,-0.841553,-0.596125,-2.67871,0
16840,-0.838493,-0.59798,-2.68657,0
16860,-0.835572,-0.599696,-2.69449,0
16880,-0.833453,-0.601011,-2.70201,0
16900,-0.830771,-0.602421,-2.70929,0
16930,-0.821732,-0.605192,-2.73077,0
16960,-0.817092,-0.607424,-2.74384,0
16970,-0.806804,-0.612777,-2.78055,0
16990,-0.805039,-0.613406,-2.78851,0
17010,-0.798433,-0.615239,-2.82211,0
17040,-0.794117,-0.617252,-2.84874,0
17060,-0.79418,-0.618238,-2.85551,0
17070,-0.79744,-0.622611,-2.88183,0
17090,-0.794842,-0.629874,-2.91064,0
17110,-0.793753,-0.631815,-2.9179,0
17130,-0.792903,-0.633435,-2.92468,0
17140,-0.789877,-0.636915,-2.93972,0
17160,-0.788511,-0.638016,-2.94673,0
17180,-0.78691,-0.639669,-2.95406,0
17200,-0.784548,-0.641209,-2.96228,0
17220,-0.782796,-0.64242,-2.96966,0
17240,-0.780549,-0.643815,-2.97752,0
17260,-0.77733,-0.644543,-2.98569,0
17280,-0.773767,-0.644927,-2.99382,0
17300,-0.770977,-0.645462,-3.00149,0
17320,-0.768606,-0.645839,-3.00908,0
17340,-0.765481,-0.645196,-3.01708,0
17380,-0.753885,-0.6447,-3.03898,0
17410,-0.749673,-0.645074,-3.0525,0
17430,-0.746551,-0.6444,-3.0599,0
17450,-0.742917,-0.642916,-3.0668,0
17470,-0.740537,-0.641129,-3.0729,0
17490,-0.7384,-0.63891,-3.07892,0
17510,-0.736906,-0.636743,-3.08463,0
17530,-0.736232,-0.633879,-3.09069,0
17550,-0.735615,-0.630636,-3.09686,0
17570,-0.73485,-0.627685,-3.10277,0
17590,-0.73408,-0.625273,-3.10862,0
17610,-0.733214,-0.623074,-3.115,0
17630,-0.731566,-0.621327,-3.1214,0
17650,-0.729839,-0.619553,-3.12812,0
17670,-0.727611,-0.618454,-3.13459,0
17690,-0.725147,-0.618248,-3.14095,0
17710,-0.722003,-0.61905,3.1355,0
17730,-0.718792,-0.619254,3.12881,0
17750,-0.716503,-0.619533,3.12327,0
17770,-0.713411,-0.620183,3.1172,0
17790,-0.709402,-0.620718,3.11116,0
17810,-0.705394,-0.620889,3.10628,0
17830,-0.702332,-0.621091,3.10249,0
17850,-0.699388,-0.621866,3.09857,0
17870,-0.696826,-0.623175,3.09481,0
17890,-0.695035,-0.623713,3.09196,0
17910,-0.694099,-0.624111,3.08977,0
17930,-0.694009,-0.624272,3.08776,0
17950,-0.695454,-0.623944,3.08591,0
17970,-0.696304,-0.623443,3.08394,0
17990,-0.697723,-0.622817,3.08291,0
18010,-0.700308,-0.622338,3.08301,0
18030,-0.703255,-0.621939,3.08298,0
18050,-0.706432,-0.621362,3.08223,0
18070,-0.710001,-0.620636,3.08157,0
18090,-0.714152,-0.619454,3.08121,0
18110,-0.718267,-0.617871,3.08162,0
18130,-0.721163,-0.616441,3.08116,0
18150,-0.722209,-0.615034,3.07918,0
18170,-0.723853,-0.612473,3.07803,0
18190,-0.726155,-0.609903,3.07779,0
18200,-0.728203,-0.607386,3.07665,0
18230,-0.729091,-0.604103,3.07379,0
18250,-0.729192,-0.600033,3.07065,0
18270,-0.727355,-0.595926,3.0683,0
18290,-0.725831,-0.593093,3.06723,0
18300,-0.724337,-0.590809,3.06593,0
18320,-0.723972,-0.588368,3.06438,0
18340,-0.726134,-0.584248,3.06252,0
18360,-0.728811,-0.579901,3.06251,0
18380,-0.729782,-0.576523,3.06288,0
18400,-0.730944,-0.573483,3.06345,0
18420,-0.732601,-0.570126,3.06294,0
18440,-0.735003,-0.56605,3.06181,0
18460,-0.73838,-0.561415,3.06181,0
18480,-0.741866,-0.557129,3.06225,0
18500,-0.744873,-0.553257,3.06323,0
18520,-0.745879,-0.550127,3.06367,0
18540,-0.746023,-0.546885,3.06301,0
18560,-0.747792,-0.54441,3.06269,0
18580,-0.750689,-0.542625,3.06277,0
18600,-0.753238,-0.541069,3.06392,0
18620,-0.754458,-0.54017,3.06584,0
18640,-0.754453,-0.540503,3.06773,0
18660,-0.754955,-0.541001,3.06941,0
18680,-0.755337,-0.540253,3.07005,0
18700,-0.756561,-0.538342,3.07114,0
18720,-0.757242,-0.536785,3.07319,0
18740,-0.758591,-0.535044,3.07502,0
18760,-0.760747,-0.532621,3.0767,0
18780,-0.762611,-0.530195,3.07828,0
18800,-0.764426,-0.528105,3.08067,0
18820,-0.765423,-0.526175,3.08305,0
18840,-0.766234,-0.524931,3.08439,0
18860,-0.767118,-0.523505,3.08555,0
18880,-0.769291,-0.521476,3.08722,0
18900,-0.77095,-0.519084,3.08861,0
18920,-0.772848,-0.516798,3.08982,0
18940,-0.773836,-0.514975,3.09058,0
18960,-0.77435,-0.512146,3.09134,0
18980,-0.776618,-0.509291,3.09307,0
19000,-0.778827,-0.506727,3.09466,0
19020,-0.781348,-0.50325,3.09661,0
19040,-0.784604,-0.498324,3.09867,0
19060,-0.787922,-0.494281,3.10084,0
19080,-0.790443,-0.490285,3.10239,0
19100,-0.793721,-0.485924,3.10398,0
19120,-0.796929,-0.482219,3.10498,0
19140,-0.797679,-0.479284,3.1057,0
19160,-0.796164,-0.476854,3.10652,0
19180,-0.794209,-0.475178,3.10701,0
19200,-0.792135,-0.474283,3.10725,0
19220,-0.791018,-0.473169,3.108,0
19240,-0.791223,-0.47226,3.10987,0
19260,-0.791622,-0.471785,3.11112,0
19280,-0.792041,-0.471258,3.1125,0
19300,-0.792689,-0.470363,3.11446,0
19320,-0.793069,-0.470017,3.11671,0
19340,-0.793616,-0.470019,3.11972,0
19360,-0.793917,-0.469653,3.12291,0
19380,-0.794667,-0.469205,3.12615,0
19400,-0.795981,-0.468845,3.12958,0
19420,-0.798162,-0.46826,3.13379,0
19440,-0.800527,-0.466805,3.13811,0
19460,-0.802861,-0.465129,-3.14088,0
19480,-0.804686,-0.46389,-3.1366,0
19500,-0.806082,-0.462524,-3.13305,0
19520,-0.807553,-0.46055,-3.13,0
19540,-0.809421,-0.458778,-3.12704,0
19560,-0.809529,-0.457491,-3.12431,0
19580,-0.809288,-0.456261,-3.12119,0
19600,-0.80969,-0.455662,-3.11809,0
19620,-0.809904,-0.455132,-3.11583,0
19640,-0.811117,-0.454096,-3.11315,0
19660,-0.81205,-0.452935,-3.11027,0
19680,-0.81289,-0.451622,-3.1067,0
19700,-0.813107,-0.451095,-3.1032,0
19720,-0.81272,-0.450268,-3.10038,0
19740,-0.813934,-0.449005,-3.09751,0
19760,-0.816166,-0.447983,-3.09442,0
19780,-0.817675,-0.446972,-3.09149,0
19800,-0.819317,-0.445635,-3.08806,0
19820,-0.822855,-0.44442,-3.08338,0
19840,-0.825972,-0.442699,-3.07956,0
19860,-0.829741,-0.440725,-3.07535,0
19880,-0.833118,-0.438933,-3.07043,0
19900,-0.834911,-0.437223,-3.06656,0
19920,-0.83552,-0.434825,-3.06257,0
19940,-0.835871,-0.43284,-3.05766,0
19960,-0.835543,-0.431547,-3.05315,0
19980,-0.834765,-0.429847,-3.04905,0
20000,-0.835318,-0.427874,-3.04382,0
20020,-0.836954,-0.427453,-3.03792,0
20040,-0.837865,-0.427207,-3.03222,0
20060,-0.838167,-0.42671,-3.02664,0
20080,-0.837329,-0.426971,-3.02128,0
20100,-0.836751,-0.427579,-3.01573,0
20120,-0.836982,-0.428407,-3.00969,0
20140,-0.83798,-0.429686,-3.00366,0
20160,-0.838525,-0.430072,-2.99846,0
20180,-0.83862,-0.429295,-2.99378,0
20200,-0.838495,-0.429155,-2.98868,0
20220,-0.838589,-0.429059,-2.98396,0
20240,-0.838752,-0.428387,-2.98015,0
20260,-0.838298,-0.426895,-2.97606,0
20280,-0.837648,-0.425994,-2.97143,0
20300,-0.83741,-0.425521,-2.96615,0
20320,-0.837253,-0.425268,-2.96107,0
20340,-0.837568,-0.4248,-2.95578,0
20360,-0.838553,-0.424244,-2.94995,0
20380,-0.839438,-0.423811,-2.94409,0
20400,-0.840303,-0.423659,-2.93793,0
20420,-0.841386,-0.423719,-2.93127,0
20440,-0.842603,-0.423215,-2.92497,0
20460,-0.844156,-0.42292,-2.91946,0
20480,-0.845118,-0.422222,-2.91366,0
20500,-0.846073,-0.421797,-2.90817,0
20520,-0.847654,-0.421053,-2.90298,0
20540,-0.848274,-0.420367,-2.89817,0
20560,-0.848172,-0.419462,-2.89314,0
20580,-0.848224,-0.41906,-2.88799,0
20600,-0.849468,-0.418782,-2.8832,0
20620,-0.850482,-0.418218,-2.8784,0
20640,-0.851179,-0.417449,-2.8731,0
20660,-0.851662,-0.417219,-2.86707,0
20680,-0.852961,-0.417786,-2.86036,0
20700,-0.853824,-0.418714,-2.85446,0
20720,-0.854524,-0.419201,-2.84882,0
20740,-0.856202,-0.419618,-2.84214,0
20760,-0.857143,-0.420648,-2.83581,0
20780,-0.857043,-0.421678,-2.82968,0
20800,-0.857421,-0.422904,-2.82272,0
20820,-0.859222,-0.42454,-2.81496,0
20840,-0.8613,-0.426307,-2.80753,0
20860,-0.862874,-0.428444,-2.80023,0
20880,-0.864819,-0.430578,-2.79232,0
20900,-0.86745,-0.433294,-2.78456,0
20920,-0.869607,-0.436065,-2.77683,0
20940,-0.870616,-0.438819,-2.76917,0
20960,-0.872318,-0.442021,-2.76166,0
20980,-0.873937,-0.445454,-2.75432,0
21000,-0.874831,-0.449239,-2.74727,0
21020,-0.875322,-0.453067,-2.7402,0
21040,-0.875832,-0.456152,-2.73339,0
21060,-0.875923,-0.458966,-2.72717,0
21080,-0.876119,-0.461794,-2.7213,0
21100,-0.877307,-0.464134,-2.71521,0
21120,-0.879018,-0.466019,-2.70952,0
21140,-0.880827,-0.467592,-2.70348,0
21160,-0.882713,-0.468696,-2.69771,0
21180,-0.885096,-0.469185,-2.69271,0
21200,-0.888136,-0.468966,-2.68761,0
21220,-0.891434,-0.468437,-2.6819,0
21240,-0.894105,-0.467804,-2.6768,0
21260,-0.89643,-0.467023,-2.67163,0
21280,-0.898642,-0.46604,-2.66666,0
21300,-0.900906,-0.465248,-2.66251,0
21320,-0.90318,-0.464289,-2.65866,0
21340,-0.903606,-0.463664,-2.65434,0
21360,-0.903688,-0.463237,-2.64968,0
21380,-0.904391,-0.462963,-2.6449,0
21400,-0.905475,-0.462674,-2.63953,0
21420,-0.905995,-0.462495,-2.63423,0
21440,-0.907395,-0.462503,-2.62829,0
21460,-0.908906,-0.463022,-2.62255,0
21480,-0.909648,-0.464154,-2.6169,0
21500,-0.910071,-0.465596,-2.61149,0
21520,-0.910476,-0.467185,-2.60641,0
21540,-0.909998,-0.46903,-2.60155,0
21560,-0.909186,-0.471674,-2.59699,0
21580,-0.908186,-0.474453,-2.59299,0
21600,-0.906876,-0.476727,-2.58906,0
21620,-0.905342,-0.47922,-2.58517,0
21640,-0.903641,-0.482308,-2.58082,0
21660,-0.902175,-0.485391,-2.57651,0
21680,-0.900811,-0.488381,-2.57235,0
21700,-0.899604,-0.491198,-2.56851,0
21710,-0.899199,-0.493644,-2.56448,0
21730,-0.899782,-0.495938,-2.55942,0
21750,-0.900097,-0.498203,-2.5545,0
21770,-0.900531,-0.500407,-2.54984,0
21790,-0.901674,-0.502154,-2.54475,0
21810,-0.903487,-0.504058,-2.53887,0
21840,-0.905059,-0.508356,-2.52911,0
21880,-0.903227,-0.520245,-2.50702,0
21900,-0.901674,-0.523847,-2.50262,0
21930,-0.900835,-0.537141,-2.4851,0
21950,-0.900527,-0.540056,-2.48024,0
21970,-0.900361,-0.543359,-2.47597,0
22010,-0.898063,-0.551584,-2.46485,0
22030,-0.896952,-0.554562,-2.46146,0
22050,-0.896029,-0.557323,-2.45801,0
22070,-0.89476,-0.560076,-2.45471,0
22110,-0.891799,-0.566183,-2.44927,0
22130,-0.890511,-0.568617,-2.44707,0
22150,-0.888369,-0.571477,-2.44501,0
22170,-0.88552,-0.575006,-2.44302,0
22190,-0.883224,-0.57796,-2.44107,0
22210,-0.881564,-0.581193,-2.43899,0
22230,-0.879899,-0.585162,-2.43715,0
22250,-0.878793,-0.589594,-2.43559,0
22270,-0.877616,-0.593327,-2.43424,0
22290,-0.87627,-0.59685,-2.43219,0
22310,-0.874378,-0.600773,-2.42998,0
22330,-0.871658,-0.605422,-2.42746,0
22350,-0.870162,-0.610198,-2.42431,0
22370,-0.8693,-0.614853,-2.42204,0
22390,-0.868243,-0.61867,-2.41999,0
22410,-0.86795,-0.622369,-2.41762,0
22430,-0.86837,-0.625828,-2.41462,0
22450,-0.867944,-0.629327,-2.41289,0
22470,-0.866096,-0.632923,-2.41271,0
22490,-0.865157,-0.636152,-2.4121,0
22510,-0.865005,-0.639052,-2.41066,0
22530,-0.864061,-0.642345,-2.40977,0
22550,-0.861875,-0.645609,-2.41065,0
22570,-0.860304,-0.648557,-2.41107,0
22590,-0.860105,-0.651384,-2.41027,0
22610,-0.860208,-0.65445,-2.40892,0
22630,-0.859073,-0.657996,-2.40812,0
22650,-0.856934,-0.661939,-2.40868,0
22670,-0.85418,-0.665114,-2.41033,0
22690,-0.851978,-0.668839,-2.41114,0
22710,-0.850786,-0.673881,-2.41088,0
22730,-0.849215,-0.67912,-2.41137,0
22750,-0.847516,-0.684115,-2.41205,0
22770,-0.846204,-0.688983,-2.41256,0
22790,-0.845302,-0.693587,-2.41307,0
22810,-0.844529,-0.69787,-2.41416,0
22830,-0.842799,-0.702506,-2.41518,0
22850,-0.840834,-0.707908,-2.41542,0
22870,-0.838105,-0.712987,-2.41608,0
22890,-0.83572,-0.717276,-2.41713,0
22910,-0.833637,-0.720929,-2.41937,0
22930,-0.83198,-0.724287,-2.42164,0
22950,-0.830846,-0.72736,-2.42385,0
22970,-0.82959,-0.730008,-2.42521,0
22990,-0.827724,-0.731884,-2.42774,0
23010,-0.825177,-0.734107,-2.43097,0
23030,-0.822778,-0.737313,-2.43382,0
23050,-0.820807,-0.740994,-2.43596,0
23070,-0.81942,-0.744205,-2.43809,0
23090,-0.817818,-0.747132,-2.44166,0
23110,-0.815436,-0.750191,-2.44529,0
23130,-0.813734,-0.754016,-2.44815,0
23150,-0.81165,-0.75829,-2.45072,0
23190,-0.804269,-0.764811,-2.46099,0
23210,-0.802327,-0.768672,-2.46507,0
23230,-0.800489,-0.77274,-2.46887,0
23250,-0.796892,-0.77703,-2.474,0
23270,-0.790778,-0.780495,-2.48133,0
23290,-0.784061,-0.783239,-2.48824,0
23310,-0.77682,-0.786466,-2.49608,0
23330,-0.77126,-0.789245,-2.50355,0
23350,-0.767592,-0.792541,-2.51023,0
23370,-0.763522,-0.796358,-2.51685,0
23390,-0.759678,-0.800506,-2.52326,0
23410,-0.755316,-0.805302,-2.53121,0
23430,-0.750969,-0.809605,-2.54034,0
23450,-0.746231,-0.813819,-2.54975,0
23470,-0.741183,-0.818226,-2.55875,0
23490,-0.736335,-0.823132,-2.56737,0
23510,-0.730576,-0.828039,-2.57702,0
23530,-0.726269,-0.831647,-2.5861,0
23550,-0.72315,-0.835186,-2.59442,0
23560,-0.720405,-0.838885,-2.60201,0
23580,-0.719343,-0.842369,-2.60876,0
23600,-0.717633,-0.844704,-2.61572,0
23620,-0.71501,-0.846476,-2.62315,0
23640,-0.713399,-0.848542,-2.62957,0
23660,-0.712084,-0.850828,-2.63654,0
23680,-0.711047,-0.852992,-2.64385,0
23700,-0.709064,-0.854896,-2.65149,0
23720,-0.706115,-0.856633,-2.65984,0
23740,-0.702624,-0.859192,-2.6684,0
23760,-0.698123,-0.861547,-2.67823,0
23780,-0.693214,-0.863481,-2.68783,0
23800,-0.688827,-0.865649,-2.69708,0
23820,-0.684417,-0.868906,-2.70563,0
23840,-0.680392,-0.872671,-2.71329,0
23860,-0.676756,-0.876801,-2.72035,0
23880,-0.673464,-0.880879,-2.72766,0
23900,-0.669443,-0.884317,-2.73552,0
23920,-0.665875,-0.887199,-2.74278,0
23940,-0.6631,-0.890527,-2.74945,0
23960,-0.660677,-0.893352,-2.75594,0
23980,-0.657665,-0.895769,-2.76359,0
24000,-0.654063,-0.89692,-2.77244,0
24020,-0.650487,-0.898089,-2.78076,0
24040,-0.646824,-0.899104,-2.78858,0
24060,-0.642235,-0.900342,-2.79725,0
24080,-0.637558,-0.902002,-2.80584,0
24100,-0.633843,-0.903394,-2.81404,0
24120,-0.630617,-0.904943,-2.82243,0
24140,-0.627984,-0.906494,-2.83043,0
24160,-0.625648,-0.907639,-2.83793,0
24180,-0.6221,-0.908673,-2.84703,0
24200,-0.617239,-0.909577,-2.85657,0
24220,-0.613935,-0.910618,-2.86484,0
24240,-0.610147,-0.910894,-2.874,0
24260,-0.604617,-0.911963,-2.88441,0
24280,-0.598818,-0.913309,-2.89382,0
24300,-0.595312,-0.915067,-2.9012,0
24320,-0.592044,-0.917259,-2.90841,0
24340,-0.588757,-0.919114,-2.91566,0
24360,-0.585411,-0.920882,-2.92267,0
24380,-0.582031,-0.922435,-2.92958,0
24400,-0.578966,-0.923921,-2.93651,0
24420,-0.574433,-0.925071,-2.94493,0
24440,-0.569226,-0.926233,-2.95357,0
24460,-0.563384,-0.927493,-2.96271,0
24480,-0.556778,-0.928579,-2.97233,0
24500,-0.550226,-0.929619,-2.98219,0
24520,-0.543572,-0.930483,-2.9927,0
24550,-0.530307,-0.932241,-3.01311,0
24570,-0.524397,-0.933016,-3.02294,0
24590,-0.515993,-0.933384,-3.03501,0
24610,-0.506886,-0.934269,-3.04708,0
24640,-0.493283,-0.935764,-3.06662,0
24660,-0.487316,-0.9375,-3.07501,0
24680,-0.48031,-0.93959,-3.08439,0
24700,-0.473822,-0.941625,-3.09352,0
24720,-0.468693,-0.94407,-3.10168,0
24740,-0.464744,-0.947211,-3.10856,0
24760,-0.460642,-0.950287,-3.11516,0
24780,-0.454935,-0.953634,-3.12324,0
24800,-0.449672,-0.956441,-3.1308,0
24820,-0.44603,-0.959253,-3.13685,0
24840,-0.441772,-0.961793,3.13975,0
24860,-0.436999,-0.96369,3.13317,0
24880,-0.432749,-0.964529,3.1268,0
24900,-0.429203,-0.965066,3.12124,0
24920,-0.42658,-0.965714,3.1169,0
24940,-0.423906,-0.966166,3.11277,0
24960,-0.420117,-0.965441,3.10753,0
24980,-0.415424,-0.964567,3.10168,0
25000,-0.412056,-0.964168,3.09715,0
25020,-0.41004,-0.963718,3.09392,0
25040,-0.408116,-0.963953,3.09068,0
25060,-0.406309,-0.963527,3.08756,0
25080,-0.402721,-0.961736,3.08224,0
25110,-0.396331,-0.958489,3.07147,0
25130,-0.394121,-0.957783,3.06722,0
25150,-0.390211,-0.956727,3.06192,0
25170,-0.385072,-0.955265,3.05539,0
25190,-0.381558,-0.954114,3.04945,0
25210,-0.379749,-0.952925,3.04441,0
25230,-0.377741,-0.951998,3.03971,0
25250,-0.375318,-0.95018,3.0345,0
25260,-0.371716,-0.948032,3.0284,0
25280,-0.369436,-0.945211,3.02331,0
25300,-0.368281,-0.942557,3.0195,0
25320,-0.364288,-0.940857,3.01359,0
25340,-0.3578,-0.939739,3.00653,0
25360,-0.35304,-0.938927,3.00095,0
25380,-0.349183,-0.937857,2.99496,0
25400,-0.344751,-0.935375,2.98752,0
25420,-0.340358,-0.932677,2.98064,0
25440,-0.336061,-0.930822,2.97478,0
25460,-0.331957,-0.929764,2.97012,0
25480,-0.328026,-0.928573,2.96524,0
25500,-0.32583,-0.926817,2.9613,0
25520,-0.325665,-0.925054,2.95835,0
25540,-0.327089,-0.923544,2.95719,0
25560,-0.327064,-0.921275,2.95452,0
25580,-0.32552,-0.918594,2.95123,0
25600,-0.326231,-0.916636,2.95036,0
25620,-0.328127,-0.916476,2.95139,0
25640,-0.329521,-0.917197,2.95228,0
25660,-0.328945,-0.91762,2.95136,0
25680,-0.327194,-0.916561,2.94914,0
25700,-0.329177,-0.91502,2.95004,0
25720,-0.332382,-0.913539,2.95169,0
25740,-0.335231,-0.911567,2.95266,0
25760,-0.336641,-0.908087,2.95262,0
25780,-0.338811,-0.905046,2.95356,0
25800,-0.341775,-0.902699,2.95536,0
25820,-0.344027,-0.899971,2.95745,0
25840,-0.346056,-0.897203,2.95874,0
25860,-0.348595,-0.894149,2.95966,0
25880,-0.352425,-0.891036,2.96214,0
25900,-0.357267,-0.888039,2.96509,0
25920,-0.360023,-0.884237,2.96652,0
25940,-0.361482,-0.879732,2.96697,0
25960,-0.362442,-0.875809,2.96754,0
25980,-0.363634,-0.872994,2.96892,0
26000,-0.36417,-0.87101,2.97012,0
26020,-0.364972,-0.869586,2.97125,0
26040,-0.367262,-0.867771,2.97298,0
26060,-0.369505,-0.86532,2.97487,0
26080,-0.372586,-0.862784,2.97781,0
26100,-0.376569,-0.861136,2.98086,0
26120,-0.382004,-0.859749,2.985,0
26140,-0.386627,-0.858161,2.98888,0
26160,-0.39104,-0.855541,2.99207,0
26180,-0.395325,-0.852479,2.9947,0
26200,-0.401057,-0.850564,2.99773,0
26220,-0.404778,-0.849365,3.00027,0
26240,-0.406882,-0.848053,3.00235,0
26260,-0.408795,-0.846321,3.00523,0
26280,-0.409301,-0.844455,3.00801,0
26300,-0.409085,-0.843806,3.01069,0
26320,-0.408959,-0.843734,3.01297,0
26340,-0.411057,-0.843288,3.01587,0
26360,-0.415365,-0.842089,3.01892,0
26380,-0.41968,-0.8401,3.02167,0
26400,-0.423716,-0.837728,3.02449,0
26420,-0.427827,-0.835023,3.02755,0
26440,-0.431651,-0.831847,3.03066,0
26460,-0.435471,-0.82889,3.03405,0
26480,-0.438887,-0.826175,3.03718,0
26500,-0.442401,-0.823251,3.0396,0
26520,-0.446319,-0.819923,3.04211,0
26540,-0.451068,-0.816558,3.04492,0
26560,-0.455341,-0.81303,3.04736,0
26580,-0.459511,-0.809509,3.04986,0
26600,-0.46329,-0.805736,3.05186,0
26620,-0.46682,-0.802221,3.05325,0
26640,-0.470436,-0.798423,3.0546,0
26660,-0.473633,-0.794682,3.05521,0
26680,-0.477466,-0.790627,3.05615,0
26700,-0.480258,-0.786706,3.05654,0
26720,-0.48166,-0.781966,3.05629,0
26740,-0.483467,-0.777241,3.05633,0
26760,-0.487313,-0.773677,3.05759,0
26780,-0.490254,-0.770489,3.0583,0
26800,-0.492344,-0.766674,3.05796,0
26820,-0.494448,-0.762586,3.05769,0
26840,-0.496551,-0.759281,3.058,0
26860,-0.498417,-0.75716,3.0589,0
26880,-0.500433,-0.754918,3.06023,0
26900,-0.501512,-0.752226,3.06027,0
26910,-0.50386,-0.749125,3.06193,0
26930,-0.507145,-0.746712,3.06451,0
26950,-0.510211,-0.744139,3.06721,0
26970,-0.51355,-0.740838,3.07011,0
26990,-0.517694,-0.737393,3.0734,0
27010,-0.521641,-0.734209,3.07653,0
27030,-0.526137,-0.731046,3.08039,0
27050,-0.529717,-0.727731,3.08373,0
27070,-0.532529,-0.724756,3.08604,0
27090,-0.534919,-0.722399,3.08929,0
27110,-0.537609,-0.720967,3.09358,0
27130,-0.539157,-0.719126,3.09597,0
27150,-0.54005,-0.716891,3.09771,0
27170,-0.542625,-0.715441,3.10142,0
27190,-0.545623,-0.715064,3.10594,0
27210,-0.547467,-0.71424,3.10964,0
27230,-0.550438,-0.712915,3.11321,0
27250,-0.55464,-0.711377,3.11734,0
27270,-0.558797,-0.710625,3.12174,0
27290,-0.56209,-0.709827,3.12656,0
27310,-0.564956,-0.709456,3.13141,0
27330,-0.566964,-0.708811,3.13524,0
27350,-0.568817,-0.708434,3.1396,0
27370,-0.571681,-0.708745,-3.13851,0
27390,-0.57366,-0.709301,-3.13409,0
27410,-0.575071,-0.709623,-3.12924,0
27430,-0.577232,-0.710519,-3.1241,0
27450,-0.57886,-0.710812,-3.11947,0
27470,-0.582215,-0.710444,-3.11395,0
27490,-0.58722,-0.710479,-3.10723,0
27510,-0.592436,-0.709485,-3.10052,0
27530,-0.597575,-0.708339,-3.0941,0
27550,-0.602455,-0.70688,-3.0874,0
27570,-0.607167,-0.705583,-3.08088,0
27590,-0.612284,-0.704807,-3.07461,0
27610,-0.616182,-0.703571,-3.06873,0
27630,-0.619881,-0.702235,-3.06282,0
27650,-0.622977,-0.701169,-3.05734,0
27670,-0.625967,-0.70033,-3.05162,0
27690,-0.628802,-0.699158,-3.0458,0
27710,-0.632111,-0.697724,-3.04,0
27730,-0.63638,-0.696595,-3.03423,0
27750,-0.640513,-0.695414,-3.02821,0
27770,-0.644605,-0.694036,-3.02253,0
27790,-0.649075,-0.692523,-3.01646,0
27810,-0.653367,-0.69131,-3.0106,0
27830,-0.657588,-0.690043,-3.00498,0
27850,-0.661551,-0.68853,-2.99956,0
27870,-0.6661,-0.68716,-2.9937,0
27890,-0.6706,-0.685824,-2.98801,0
27910,-0.674865,-0.68433,-2.98241,0
27930,-0.678528,-0.682679,-2.97728,0
27950,-0.681835,-0.68056,-2.97248,0
27970,-0.685611,-0.678848,-2.96729,0
27990,-0.689714,-0.678048,-2.96183,0
28010,-0.692673,-0.67704,-2.95676,0
28030,-0.694419,-0.675647,-2.95281,0
28050,-0.696503,-0.674394,-2.94842,0
28070,-0.699819,-0.673918,-2.94336,0
28090,-0.703796,-0.673482,-2.93801,0
28110,-0.706893,-0.673079,-2.93285,0
28130,-0.709902,-0.672312,-2.92782,0
28150,-0.713166,-0.671538,-2.9228,0
28170,-0.717419,-0.670837,-2.91726,0
28190,-0.721802,-0.670359,-2.91233,0
28210,-0.726858,-0.669649,-2.90707,0
28230,-0.730807,-0.668332,-2.90233,0
28250,-0.734822,-0.667145,-2.89756,0
28270,-0.738347,-0.666405,-2.89292,0
28290,-0.741923,-0.666072,-2.88817,0
28310,-0.744757,-0.665922,-2.88402,0
28330,-0.747772,-0.665304,-2.8794,0
28350,-0.751721,-0.664876,-2.87381,0
28370,-0.755273,-0.664459,-2.86901,0
28390,-0.757975,-0.663649,-2.86474,0
28410,-0.760781,-0.662735,-2.85979,0
28430,-0.764345,-0.66215,-2.85382,0
28450,-0.768324,-0.661951,-2.84778,0
28470,-0.772207,-0.661306,-2.84248,0
28490,-0.775836,-0.660734,-2.8367,0
28510,-0.779665,-0.660681,-2.83042,0
28530,-0.783483,-0.661214,-2.82373,0
28550,-0.787074,-0.661198,-2.81718,0
28570,-0.791721,-0.661263,-2.81016,0
28590,-0.796594,-0.661392,-2.803,0
28610,-0.801445,-0.661554,-2.79596,0
28630,-0.806387,-0.661924,-2.78833,0
28650,-0.810618,-0.662395,-2.78103,0
28670,-0.815068,-0.66248,-2.77394,0
28690,-0.819999,-0.662756,-2.76663,0
28710,-0.824748,-0.663072,-2.75947,0
28730,-0.828469,-0.663586,-2.75272,0
28750,-0.832214,-0.663985,-2.74575,0
28770,-0.835881,-0.664303,-2.73932,0
28790,-0.840027,-0.664427,-2.73254,0
28810,-0.844103,-0.664644,-2.72519,0
28830,-0.848124,-0.664389,-2.71786,0
28850,-0.85256,-0.663858,-2.71031,0
28870,-0.856915,-0.663739,-2.70307,0
28890,-0.860827,-0.663542,-2.69603,0
28900,-0.864542,-0.663357,-2.6886,0
28920,-0.868903,-0.663596,-2.68011,0
28940,-0.87292,-0.664001,-2.67199,0
28960,-0.877689,-0.664356,-2.66397,0
28980,-0.882202,-0.664822,-2.65582,0
29000,-0.886501,-0.665746,-2.64728,0
29020,-0.890068,-0.666935,-2.63885,0
29040,-0.894338,-0.667707,-2.63037,0
29060,-0.899655,-0.668908,-2.62168,0
29080,-0.904537,-0.670776,-2.61266,0
29100,-0.908842,-0.672354,-2.60392,0
29120,-0.913151,-0.673531,-2.59502,0
29140,-0.916363,-0.67515,-2.58725,0
29160,-0.919599,-0.676905,-2.5802,0
29180,-0.923009,-0.678294,-2.57272,0
29200,-0.92587,-0.68015,-2.56579,0
29220,-0.928576,-0.68224,-2.55902,0
29240,-0.931262,-0.684409,-2.55199,0
29260,-0.934154,-0.686533,-2.54416,0
29280,-0.937063,-0.688891,-2.53687,0
29300,-0.939661,-0.690878,-2.53051,0
29320,-0.942663,-0.692379,-2.5235,0
29340,-0.946066,-0.693778,-2.51598,0
29360,-0.949034,-0.69618,-2.50915,0
29380,-0.95201,-0.698734,-2.50227,0
29400,-0.955247,-0.701385,-2.4953,0
29420,-0.95867,-0.704051,-2.48802,0
29440,-0.962039,-0.707252,-2.48118,0
29460,-0.965255,-0.710133,-2.47429,0
29480,-0.967843,-0.71359,-2.46768,0
29500,-0.96931,-0.717018,-2.46092,0
29520,-0.971066,-0.720232,-2.4541,0
29540,-0.973146,-0.723962,-2.44779,0
29560,-0.974826,-0.727729,-2.44175,0
29580,-0.975889,-0.731089,-2.43522,0
29600,-0.977861,-0.734097,-2.42779,0
29620,-0.979372,-0.737406,-2.42084,0
29640,-0.980752,-0.740409,-2.41465,0
29660,-0.982138,-0.743203,-2.40876,0
29680,-0.983141,-0.74599,-2.40304,0
29700,-0.983608,-0.748771,-2.39827,0
29720,-0.983551,-0.751649,-2.39386,0
29740,-0.982047,-0.755282,-2.38967,0
29760,-0.979248,-0.75943,-2.38608,0
29780,-0.977121,-0.76355,-2.38223,0
29800,-0.976022,-0.768069,-2.37852,0
29820,-0.974062,-0.772917,-2.37559,0
29840,-0.973602,-0.776903,-2.37164,0
29860,-0.975418,-0.780742,-2.3658,0
29880,-0.976376,-0.784696,-2.36109,0
29900,-0.977229,-0.788528,-2.35724,0
29920,-0.978812,-0.791821,-2.35335,0
29940,-0.981038,-0.79507,-2.34914,0
29960,-0.983233,-0.798117,-2.34487,0
29980,-0.985794,-0.8014,-2.34086,0
30000,-0.987381,-0.80485,-2.33722,0
30020,-0.988662,-0.808518,-2.33338,0
30040,-0.989192,-0.812155,-2.32954,0
30060,-0.989793,-0.815883,-2.32675,0
30080,-0.99014,-0.819481,-2.324,0
30100,-0.990158,-0.822991,-2.32126,0
30120,-0.990113,-0.826407,-2.31865,0
30140,-0.989294,-0.83002,-2.31654,0
30160,-0.986765,-0.833974,-2.31479,0
30180,-0.984719,-0.837626,-2.31347,0
30200,-0.98275,-0.840771,-2.31327,0
30220,-0.98138,-0.843807,-2.31266,0
30240,-0.979395,-0.847807,-2.31221,0
30260,-0.978021,-0.851208,-2.31111,0
30280,-0.976549,-0.854942,-2.31075,0
30300,-0.974391,-0.858314,-2.31103,0
30320,-0.972849,-0.861753,-2.31087,0
30340,-0.972519,-0.865462,-2.31009,0
30360,-0.972224,-0.86888,-2.30959,0
30380,-0.970904,-0.872594,-2.31029,0
30400,-0.96918,-0.876451,-2.31113,0
30420,-0.968589,-0.880236,-2.31094,0
30440,-0.968036,-0.885015,-2.31129,0
30460,-0.965576,-0.889974,-2.31327,0
30480,-0.964534,-0.894395,-2.31453,0
30500,-0.964973,-0.898776,-2.31449,0
30520,-0.965333,-0.903648,-2.31406,0
30540,-0.965364,-0.908721,-2.31454,0
30560,-0.963233,-0.913368,-2.31751,0
30580,-0.961944,-0.918143,-2.31967,0
30600,-0.961514,-0.92305,-2.32098,0
30620,-0.961441,-0.927963,-2.32205,0
30640,-0.96107,-0.932953,-2.32421,0
30660,-0.95964,-0.937784,-2.32755,0
30680,-0.958104,-0.942097,-2.33102,0
30700,-0.956165,-0.95183,-2.33692,0
30720,-0.954377,-0.956005,-2.34115,0
30740,-0.952028,-0.960147,-2.34597,0
30760,-0.949491,-0.96428,-2.35087,0
30780,-0.947388,-0.96889,-2.35515,0
30800,-0.944826,-0.973201,-2.36017,0
30820,-0.941673,-0.977466,-2.36641,0
30840,-0.938565,-0.98206,-2.3721,0
30880,-0.932592,-0.995518,-2.38779,0
30900,-0.929087,-0.999831,-2.39559,0
30940,-0.91934,-1.01253,-2.41702,0
30960,-0.914969,-1.01674,-2.42572,0
30980,-0.910575,-1.02154,-2.43522,0
31000,-0.905967,-1.026,-2.44385,0
31020,-0.901306,-1.03126,-2.45216,0
31040,-0.89507,-1.03671,-2.4619,0
31060,-0.88755,-1.04128,-2.47301,0
31080,-0.880146,-1.04593,-2.48454,0
31100,-0.873151,-1.05041,-2.49541,0
31120,-0.866875,-1.05491,-2.50534,0
31140,-0.860084,-1.05913,-2.51455,0
31160,-0.850853,-1.06356,-2.526,0
31180,-0.84214,-1.06719,-2.53769,0
31200,-0.833294,-1.0705,-2.55012,0
31220,-0.824935,-1.07409,-2.56021,0
31240,-0.818052,-1.07797,-2.56821,0
31260,-0.812878,-1.08209,-2.57581,0
31280,-0.8078,-1.08549,-2.58383,0
31300,-0.802707,-1.08861,-2.59213,0
31320,-0.795835,-1.09142,-2.60175,0
31340,-0.788463,-1.09439,-2.61099,0
31360,-0.778469,-1.0979,-2.62278,0
31380,-0.767251,-1.1012,-2.63597,0
31400,-0.756364,-1.10372,-2.64952,0
31420,-0.745463,-1.10606,-2.66392,0
31440,-0.733082,-1.10852,-2.67837,0
31460,-0.719574,-1.11129,-2.69313,0
31480,-0.706964,-1.11428,-2.70764,0
31500,-0.694959,-1.11672,-2.72242,0
31520,-0.684057,-1.11932,-2.73591,0
31540,-0.673711,-1.12191,-2.74846,0
31560,-0.663415,-1.12495,-2.76084,0
31580,-0.652594,-1.12777,-2.77321,0
31600,-0.639661,-1.13053,-2.78853,0
31620,-0.62518,-1.13376,-2.80541,0
31640,-0.612117,-1.13658,-2.8203,0
31660,-0.598604,-1.13988,-2.8358,0
31680,-0.585811,-1.14327,-2.85065,0
31700,-0.571809,-1.1466,-2.86624,0
31720,-0.557608,-1.14987,-2.88238,0
31740,-0.544363,-1.15244,-2.89867,0
31760,-0.530631,-1.15468,-2.91647,0
31780,-0.515459,-1.15574,-2.93468,0
31800,-0.49975,-1.15615,-2.95258,0
31820,-0.48312,-1.15682,-2.97149,0
31840,-0.467594,-1.15756,-2.98964,0
31860,-0.454521,-1.15809,-3.00616,0
31880,-0.442946,-1.15748,-3.02159,0
31900,-0.431915,-1.1563,-3.03661,0
31920,-0.420643,-1.15486,-3.05111,0
31940,-0.41116,-1.15324,-3.06373,0
31960,-0.404059,-1.15151,-3.07478,0
31980,-0.397899,-1.14966,-3.08561,0
32000,-0.390068,-1.14801,-3.09775,0
32020,-0.382113,-1.14637,-3.10889,0
32040,-0.373678,-1.1453,-3.1204,0
32060,-0.364712,-1.1447,-3.13283,0
32080,-0.354397,-1.14413,3.13747,0
32100,-0.345303,-1.14341,3.12574,0
32120,-0.336764,-1.14287,3.11417,0
32140,-0.328725,-1.14281,3.10325,0
32160,-0.318812,-1.14225,3.09107,0
32180,-0.31041,-1.14133,3.08007,0
32200,-0.302592,-1.13953,3.06944,0
32220,-0.294073,-1.1378,3.05804,0
32240,-0.286135,-1.13632,3.04797,0
32260,-0.27887,-1.13461,3.03847,0
32270,-0.268815,-1.13208,3.02644,0
32290,-0.258319,-1.12946,3.0143,0
32310,-0.249788,-1.12745,3.00378,0
32330,-0.241847,-1.1265,2.99463,0
32350,-0.232571,-1.12559,2.98496,0
32370,-0.222829,-1.12398,2.97452,0
32390,-0.217223,-1.12233,2.96712,0
32410,-0.211848,-1.12099,2.95962,0
32430,-0.205623,-1.11986,2.9519,0
32450,-0.201116,-1.11861,2.9467,0
32470,-0.1983,-1.1178,2.94258,0
32490,-0.195445,-1.11694,2.93744,0
32510,-0.192314,-1.11561,2.9318,0
32530,-0.190799,-1.11422,2.92759,0
32550,-0.191219,-1.11308,2.92534,0
32570,-0.191076,-1.11249,2.92363,0
32590,-0.190448,-1.11214,2.92163,0
32610,-0.190649,-1.11067,2.9204,0
32630,-0.192506,-1.10931,2.92046,0
32650,-0.1929,-1.10746,2.92023,0
32670,-0.194126,-1.10561,2.92136,0
32690,-0.197695,-1.10385,2.92348,0
32710,-0.202288,-1.10132,2.92532,0
32730,-0.20599,-1.09758,2.9261,0
32750,-0.210189,-1.09379,2.92819,0
32770,-0.215822,-1.0899,2.93198,0
32790,-0.220342,-1.08611,2.93394,0
32810,-0.224288,-1.08168,2.93591,0
32830,-0.230558,-1.07787,2.93942,0
32850,-0.236925,-1.07379,2.94264,0
32870,-0.243902,-1.06989,2.94547,0
32890,-0.250005,-1.06565,2.94758,0
32910,-0.254818,-1.06114,2.94948,0
32930,-0.258973,-1.05664,2.95025,0
32950,-0.262506,-1.05243,2.95023,0
32970,-0.267854,-1.04797,2.95164,0
32990,-0.273447,-1.04352,2.953,0
33010,-0.278028,-1.03942,2.95337,0
33030,-0.284304,-1.03626,2.95604,0
33050,-0.291811,-1.03472,2.95939,0
33070,-0.297205,-1.03217,2.96,0
33090,-0.304285,-1.02909,2.96263,0
33110,-0.314474,-1.02639,2.96727,0
33130,-0.324906,-1.02331,2.9714,0
33150,-0.333305,-1.01917,2.97366,0
33170,-0.342351,-1.01511,2.97638,0
33190,-0.352448,-1.0118,2.98159,0
33210,-0.361869,-1.00971,2.98743,0
33230,-0.368914,-1.00774,2.99124,0
33250,-0.375259,-1.00575,2.9938,0
33270,-0.382037,-1.00338,2.99695,0
33290,-0.388415,-1.00207,3.00089,0
33310,-0.393808,-1.00091,3.0049,0
33330,-0.399244,-0.999452,3.00871,0
33350,-0.404235,-0.997076,3.01157,0
33370,-0.410998,-0.99411,3.01538,0
33390,-0.420265,-0.990966,3.02077,0
33410,-0.429142,-0.987575,3.02568,0
33430,-0.437494,-0.984311,3.03134,0
33450,-0.444598,-0.980958,3.03626,0
33470,-0.452374,-0.977102,3.04101,0
33490,-0.460826,-0.973083,3.04542,0
33510,-0.468251,-0.96892,3.04826,0
33530,-0.47584,-0.964776,3.05141,0
33550,-0.48298,-0.960676,3.05432,0
33570,-0.488052,-0.956929,3.05591,0
33590,-0.491348,-0.953187,3.0566,0
33610,-0.496157,-0.950093,3.05904,0
33630,-0.500248,-0.947567,3.06164,0
33650,-0.502832,-0.944595,3.06256,0
33670,-0.504511,-0.941065,3.06281,0
33690,-0.510404,-0.937828,3.06671,0
33710,-0.517882,-0.934932,3.07256,0
33730,-0.522511,-0.931833,3.07567,0
33750,-0.526587,-0.927922,3.07785,0
33770,-0.532061,-0.924313,3.08125,0
33790,-0.538603,-0.921028,3.08461,0
33810,-0.542863,-0.918286,3.08614,0
33830,-0.545642,-0.915348,3.08758,0
33850,-0.548752,-0.912649,3.08992,0
33870,-0.550983,-0.910424,3.09153,0
33890,-0.552078,-0.907805,3.09204,0
33910,-0.553593,-0.904506,3.09192,0
33930,-0.556892,-0.900904,3.09189,0
33950,-0.560684,-0.89671,3.0923,0
33970,-0.564111,-0.892856,3.09299,0
33990,-0.567656,-0.889131,3.09387,0
34010,-0.572617,-0.885475,3.09602,0
34030,-0.577467,-0.882252,3.09722,0
34050,-0.579957,-0.87871,3.0968,0
34070,-0.584431,-0.875388,3.09849,0
34090,-0.588856,-0.87277,3.10019,0
34110,-0.59185,-0.869739,3.10141,0
34130,-0.594606,-0.866109,3.10156,0
34150,-0.598652,-0.86199,3.10289,0
34170,-0.604331,-0.859283,3.10644,0
34190,-0.609245,-0.856973,3.1108,0
34210,-0.613364,-0.85465,3.11435,0
34220,-0.618697,-0.852223,3.11785,0
34240,-0.625004,-0.849734,3.12128,0
34260,-0.631942,-0.846902,3.12504,0
34280,-0.639378,-0.84386,3.1291,0
34300,-0.647179,-0.840542,3.13375,0
34320,-0.655047,-0.837679,3.13837,0
34340,-0.662449,-0.834957,-3.13987,0
34360,-0.669523,-0.83302,-3.13476,0
34380,-0.677945,-0.830865,-3.12866,0
34400,-0.687743,-0.828768,-3.12264,0
34420,-0.697438,-0.826397,-3.11712,0
34440,-0.70535,-0.824105,-3.11182,0
34460,-0.711978,-0.82145,-3.10661,0
34480,-0.71874,-0.81837,-3.10131,0
34500,-0.724626,-0.815765,-3.09744,0
34520,-0.729068,-0.812749,-3.09413,0
34540,-0.734337,-0.809126,-3.09053,0
34560,-0.740965,-0.805472,-3.08638,0
34580,-0.74719,-0.802251,-3.08274,0
34600,-0.752598,-0.799228,-3.07932,0
34620,-0.75808,-0.795752,-3.07654,0
34640,-0.764338,-0.792451,-3.07363,0
34660,-0.769397,-0.789336,-3.07163,0
34680,-0.773968,-0.786231,-3.06841,0
34700,-0.778405,-0.783617,-3.06505,0
34720,-0.782793,-0.78119,-3.06221,0
34740,-0.786362,-0.779129,-3.06018,0
34760,-0.789163,-0.776622,-3.05839,0
34780,-0.793442,-0.774406,-3.05551,0
34800,-0.797136,-0.772698,-3.054,0
34820,-0.800319,-0.770017,-3.05282,0
34840,-0.80424,-0.767469,-3.0503,0
34860,-0.806787,-0.764601,-3.04851,0
34880,-0.808447,-0.761207,-3.04715,0
34900,-0.812961,-0.758201,-3.0437,0
34920,-0.817241,-0.756128,-3.04089,0
34940,-0.819765,-0.753926,-3.03838,0
34960,-0.821894,-0.752383,-3.03547,0
34980,-0.824232,-0.7512,-3.03265,0
35000,-0.827802,-0.749768,-3.02934,0
35020,-0.830607,-0.748486,-3.02646,0
35040,-0.832404,-0.747264,-3.02311,0
35060,-0.834254,-0.746545,-3.01923,0
35080,-0.834804,-0.746265,-3.01671,0
35100,-0.835252,-0.74597,-3.01414,0
35120,-0.838448,-0.745742,-3.01005,0
35140,-0.841962,-0.744984,-3.00599,0
35160,-0.843968,-0.742876,-3.00297,0
35180,-0.845914,-0.74019,-3.00023,0
35200,-0.850135,-0.73784,-2.99683,0
35220,-0.854193,-0.735559,-2.99496,0
35240,-0.857551,-0.73243,-2.99399,0
35260,-0.8598,-0.729782,-2.99175,0
35280,-0.861506,-0.727723,-2.9887,0
35300,-0.86302,-0.726079,-2.98654,0
35320,-0.86575,-0.724314,-2.98394,0
35340,-0.868557,-0.72193,-2.98154,0
35360,-0.870848,-0.719422,-2.97931,0
35380,-0.871176,-0.716889,-2.97652,0
35400,-0.871955,-0.715291,-2.97267,0
35420,-0.873284,-0.713622,-2.96933,0
35440,-0.875287,-0.712137,-2.96624,0
35460,-0.878124,-0.711525,-2.96098,0
35480,-0.879634,-0.711653,-2.95634,0
35500,-0.87893,-0.711735,-2.95364,0
35520,-0.878945,-0.711636,-2.95042,0
35540,-0.881132,-0.711625,-2.94605,0
35560,-0.882839,-0.712061,-2.9411,0
35580,-0.88132,-0.712407,-2.93746,0
35600,-0.879799,-0.713035,-2.93374,0
35620,-0.882087,-0.71376,-2.92799,0
35640,-0.885555,-0.713955,-2.92219,0
35660,-0.88842,-0.713908,-2.91631,0
35680,-0.890702,-0.714394,-2.90975,0
35700,-0.893158,-0.715204,-2.9035,0
35720,-0.896054,-0.715603,-2.89797,0
35740,-0.900037,-0.715537,-2.89194,0
35760,-0.902789,-0.714925,-2.88626,0
35780,-0.90459,-0.713873,-2.88167,0
35800,-0.906336,-0.713315,-2.87654,0
35820,-0.907981,-0.712483,-2.87148,0
35840,-0.909755,-0.711613,-2.86602,0
35860,-0.9115,-0.710956,-2.86041,0
35880,-0.9138,-0.710904,-2.85505,0
35900,-0.916678,-0.710688,-2.84928,0
35920,-0.920194,-0.711152,-2.84239,0
35940,-0.923497,-0.711647,-2.83587,0
35960,-0.926156,-0.711998,-2.83043,0
35980,-0.9291,-0.712249,-2.82448,0
36000,-0.933339,-0.712387,-2.8172,0
36020,-0.936453,-0.712992,-2.81068,0
36040,-0.938438,-0.713665,-2.80506,0
36060,-0.940486,-0.714085,-2.79921,0
36080,-0.943971,-0.714523,-2.79203,0
36100,-0.947675,-0.715405,-2.78515,0
36120,-0.950046,-0.71605,-2.77881,0
36140,-0.952907,-0.717234,-2.77128,0
36160,-0.957163,-0.718872,-2.7627,0
36180,-0.961849,-0.721021,-2.75425,0
36200,-0.96582,-0.723249,-2.74564,0
36220,-0.969039,-0.725078,-2.73716,0
36240,-0.973355,-0.726841,-2.72724,0
36260,-0.978024,-0.728926,-2.71732,0
36280,-0.983207,-0.730825,-2.70772,0
36300,-0.988848,-0.732838,-2.69804,0
36320,-0.995482,-0.73499,-2.68739,0
36340,-1.00076,-0.737443,-2.67697,0
36360,-1.00595,-0.740162,-2.66644,0
36380,-1.01037,-0.742773,-2.65598,0
36400,-1.01549,-0.745604,-2.64565,0
36420,-1.02107,-0.748203,-2.63521,0
36440,-1.02589,-0.750749,-2.62527,0
36460,-1.02968,-0.753331,-2.61563,0
36480,-1.03362,-0.755958,-2.60609,0
36500,-1.03863,-0.758313,-2.59642,0
36520,-1.04402,-0.760462,-2.58706,0
36540,-1.04858,-0.762205,-2.57747,0
36560,-1.05311,-0.763704,-2.5684,0
36580,-1.0574,-0.766026,-2.55959,0
36600,-1.0614,-0.768276,-2.55092,0
36620,-1.06662,-0.770218,-2.54214,0
36640,-1.07165,-0.772192,-2.53374,0
36660,-1.07555,-0.774195,-2.52557,0
36680,-1.07912,-0.776414,-2.51775,0
36700,-1.08279,-0.778242,-2.5102,0
36720,-1.08796,-0.779556,-2.50259,0
36740,-1.09199,-0.781052,-2.49583,0
36760,-1.09559,-0.782504,-2.48925,0
36780,-1.09899,-0.784214,-2.48349,0
36800,-1.10214,-0.785883,-2.47793,0
36820,-1.10498,-0.787411,-2.47238,0
36840,-1.10791,-0.788969,-2.46655,0
36860,-1.11027,-0.790592,-2.46106,0
36880,-1.11365,-0.792058,-2.45547,0
36900,-1.11675,-0.793382,-2.45025,0
36920,-1.1195,-0.794638,-2.44517,0
36940,-1.12237,-0.795615,-2.43993,0
36960,-1.12527,-0.796827,-2.43479,0
36980,-1.12779,-0.797895,-2.42928,0
37000,-1.13068,-0.79879,-2.42353,0
37020,-1.13376,-0.800369,-2.4177,0
37040,-1.13686,-0.801552,-2.41181,0
37060,-1.14304,-0.80211,-2.40479,0
37080,-1.14935,-0.802593,-2.39839,0
37100,-1.15371,-0.802942,-2.3927,0
37120,-1.15726,-0.803154,-2.38657,0
37140,-1.1611,-0.803769,-2.38022,0
37160,-1.16465,-0.804495,-2.374,0
37180,-1.16743,-0.805625,-2.36797,0
37200,-1.16978,-0.807054,-2.36163,0
37220,-1.17298,-0.80848,-2.35481,0
37240,-1.17604,-0.809833,-2.34778,0
37260,-1.17887,-0.811718,-2.34058,0
37280,-1.1817,-0.81345,-2.33271,0
37300,-1.18633,-0.814858,-2.32477,0
37320,-1.19138,-0.816582,-2.3175,0
37340,-1.19607,-0.818102,-2.30939,0
37360,-1.20053,-0.819907,-2.30097,0
37380,-1.20494,-0.822487,-2.29281,0
37400,-1.20959,-0.825271,-2.28431,0
37420,-1.21405,-0.828473,-2.27606,0
37440,-1.21846,-0.831567,-2.26794,0
37460,-1.22239,-0.834714,-2.25968,0
37480,-1.22601,-0.837965,-2.25106,0
37500,-1.22985,-0.841486,-2.24256,0
37520,-1.23372,-0.845192,-2.23466,0
37540,-1.23743,-0.848243,-2.2274,0
37560,-1.24212,-0.850872,-2.21969,0
37580,-1.2457,-0.853734,-2.21304,0
37600,-1.2484,-0.857024,-2.20717,0
37620,-1.25123,-0.860038,-2.20081,0
37630,-1.25276,-0.862702,-2.19485,0
37650,-1.25351,-0.865977,-2.18961,0
37670,-1.25396,-0.869223,-2.18371,0
37690,-1.25525,-0.873378,-2.17733,0
37710,-1.25733,-0.877307,-2.17031,0
37730,-1.25951,-0.881508,-2.16417,0
37750,-1.25995,-0.886299,-2.15906,0
37770,-1.25989,-0.891005,-2.15303,0
37790,-1.26268,-0.895719,-2.14614,0
37810,-1.2644,-0.901602,-2.13984,0
37830,-1.26429,-0.907203,-2.13422,0
37850,-1.26586,-0.912443,-2.1277,0
37870,-1.2686,-0.917575,-2.12225,0
37890,-1.27032,-0.922746,-2.11843,0
37910,-1.2706,-0.927384,-2.11424,0
37930,-1.27135,-0.932003,-2.10887,0
37950,-1.27346,-0.936756,-2.10116,0
37970,-1.27592,-0.941957,-2.09383,0
37990,-1.27878,-0.947086,-2.08724,0
38010,-1.28315,-0.9516,-2.08062,0
38030,-1.2882,-0.955373,-2.07377,0
38050,-1.29204,-0.958838,-2.06762,0
38070,-1.2931,-0.962716,-2.06256,0
38090,-1.29555,-0.965963,-2.0565,0
38110,-1.30037,-0.968653,-2.04872,0
38130,-1.30456,-0.97214,-2.04192,0
38150,-1.30605,-0.975921,-2.03654,0
38170,-1.30865,-0.979238,-2.03035,0
38190,-1.31292,-0.983136,-2.02257,0
38210,-1.31656,-0.987545,-2.01568,0
38230,-1.31982,-0.992105,-2.0097,0
38250,-1.32359,-0.996684,-2.00341,0
38270,-1.32733,-1.00153,-1.99687,0
38290,-1.32998,-1.00671,-1.99122,0
38310,-1.33158,-1.01219,-1.98686,0
38330,-1.33366,-1.01837,-1.98285,0
38350,-1.33563,-1.02519,-1.97862,0
38370,-1.33729,-1.03232,-1.97411,0
38390,-1.33903,-1.03917,-1.96944,0
38410,-1.33965,-1.04676,-1.96692,0
38430,-1.33913,-1.05401,-1.96522,0
38450,-1.34078,-1.06125,-1.96121,0
38470,-1.34276,-1.06846,-1.95716,0
38490,-1.34287,-1.07497,-1.95456,0
38510,-1.34308,-1.08073,-1.95294,0
38530,-1.34362,-1.08587,-1.952,0
38550,-1.34425,-1.0903,-1.9515,0
38570,-1.34091,-1.09452,-1.95491,0
38590,-1.33602,-1.09856,-1.95968,0
38610,-1.33031,-1.10284,-1.96392,0
38630,-1.32485,-1.10764,-1.96823,0
38650,-1.31959,-1.11317,-1.97234,0
38670,-1.3137,-1.11828,-1.97604,0
38690,-1.30774,-1.12382,-1.97943,0
38710,-1.30223,-1.12953,-1.98289,0
38730,-1.29844,-1.13496,-1.98486,0
38750,-1.29257,-1.14074,-1.98914,0
38770,-1.28775,-1.14612,-1.99196,0
38790,-1.28444,-1.15121,-1.99305,0
38810,-1.28214,-1.15621,-1.99379,0
38830,-1.27677,-1.16166,-1.99739,2001
38850,-1.26936,-1.16648,-2.00284,0
38870,-1.26683,-1.17083,-2.00493,0
38890,-1.26771,-1.17514,-2.00312,0
38910,-1.27065,-1.1793,-1.99904,0
38930,-1.27488,-1.18308,-1.99321,0
38950,-1.28096,-1.18688,-1.98669,0
38970,-1.28975,-1.18979,-1.97865,0
38990,-1.29625,-1.19231,-1.97353,0
39010,-1.29967,-1.19427,-1.9707,0
39030,-1.30384,-1.19499,-1.96561,0
39050,-1.3095,-1.19579,-1.95988,0
39070,-1.31413,-1.19662,-1.95586,0
39090,-1.31774,-1.19644,-1.95288,0
39110,-1.32104,-1.19626,-1.9512,0
39130,-1.32092,-1.19576,-1.95227,0
39150,-1.31917,-1.19452,-1.95464,0
39170,-1.31481,-1.19412,-1.96034,0
39190,-1.30871,-1.19239,-1.96744,0
39210,-1.30636,-1.19013,-1.97366,0
39230,-1.30297,-1.18717,-1.98337,0
39250,-1.30037,-1.18394,-1.99269,0
39270,-1.29598,-1.18008,-2.00175,0
39290,-1.28811,-1.1761,-2.0129,0
39310,-1.27712,-1.17223,-2.02801,0
39330,-1.26444,-1.16848,-2.04563,0
39350,-1.25048,-1.16399,-2.06406,0
39370,-1.23342,-1.15902,-2.08557,0
39390,-1.21094,-1.15304,-2.1131,0
39410,-1.18539,-1.14596,-2.14304,0
39430,-1.15977,-1.13744,-2.17175,0
39450,-1.13241,-1.12698,-2.20201,0
39470,-1.10202,-1.11395,-2.237,0
39490,-1.07406,-1.09864,-2.26857,0
39510,-1.0476,-1.08086,-2.297,0
39530,-1.0213,-1.06018,-2.32433,0
39550,-0.995769,-1.03581,-2.35074,0
39570,-0.973643,-1.00937,-2.37437,0
39580,-0.951945,-0.985253,-2.39557,0
39610,-0.92615,-0.959423,-2.41641,0
39620,-0.90106,-0.929033,-2.43391,0
39640,-0.883158,-0.89869,-2.44673,0
39660,-0.86079,-0.872158,-2.46083,0
39680,-0.834817,-0.844774,-2.47589,0
39700,-0.817623,-0.814095,-2.48148,0
39720,-0.808116,-0.785338,-2.48467,0
39740,-0.78968,-0.759926,-2.49488,0
39760,-0.76643,-0.735831,-2.50583,0
39780,-0.747889,-0.711802,-2.50979,0
39800,-0.737497,-0.690066,-2.5075,0
39820,-0.729866,-0.670377,-2.50537,0
39840,-0.723073,-0.652528,-2.50387,0
39860,-0.718998,-0.635253,-2.50106,0
39880,-0.718922,-0.617678,-2.49469,0
39900,-0.723195,-0.600845,-2.48647,0
39920,-0.728682,-0.584937,-2.47951,0
39940,-0.734255,-0.570227,-2.47383,0
39960,-0.739457,-0.556091,-2.46691,0
39980,-0.743959,-0.542953,-2.45902,0
40000,-0.748709,-0.53154,-2.45074,0
40020,-0.751619,-0.521694,-2.44375,0
40040,-0.753296,-0.512446,-2.43913,0
40060,-0.754939,-0.50279,-2.43515,0
40080,-0.758165,-0.493244,-2.42964,0
40100,-0.761669,-0.484378,-2.42424,0
40120,-0.764618,-0.475887,-2.42056,0
40140,-0.766154,-0.46752,-2.41884,0
40160,-0.767475,-0.459894,-2.41688,0
40180,-0.770013,-0.453299,-2.41324,0
40200,-0.772093,-0.447652,-2.41075,0
40220,-0.773129,-0.441687,-2.40999,0
40240,-0.773613,-0.435829,-2.40903,0
40260,-0.774619,-0.431007,-2.40628,0
40280,-0.775321,-0.42793,-2.40312,0
40300,-0.77574,-0.425883,-2.40141,0
40320,-0.777055,-0.42355,-2.40015,0
40340,-0.779276,-0.421501,-2.39836,0
40360,-0.780915,-0.419478,-2.39701,0
40380,-0.781478,-0.417323,-2.39649,0
40400,-0.781344,-0.415766,-2.39619,0
40420,-0.781565,-0.415191,-2.39472,0
40440,-0.782111,-0.415387,-2.39359,0
40460,-0.782785,-0.415285,-2.39348,0
40480,-0.783578,-0.414544,-2.3938,0
40500,-0.783463,-0.413709,-2.39388,0
40520,-0.7838,-0.413712,-2.39333,0
40540,-0.784591,-0.414553,-2.39214,0
40560,-0.784919,-0.415048,-2.39124,0
40580,-0.78499,-0.414588,-2.39041,0
40600,-0.786039,-0.414036,-2.39022,0
40620,-0.787052,-0.414318,-2.38978,0
40640,-0.787311,-0.413594,-2.3888,0
40660,-0.788392,-0.412579,-2.38729,0
40680,-0.789199,-0.412775,-2.38643,0
40700,-0.789224,-0.412965,-2.38657,0
40720,-0.789871,-0.412219,-2.38631,0
40740,-0.788716,-0.41219,-2.38515,0
40760,-0.786627,-0.413476,-2.38432,0
40780,-0.783739,-0.41506,-2.38359,0
40800,-0.781454,-0.416506,-2.38256,0
40820,-0.780255,-0.418116,-2.38129,0
40840,-0.779387,-0.420115,-2.38013,0
40860,-0.778841,-0.421548,-2.37805,0
40880,-0.778707,-0.422268,-2.37557,0
40900,-0.778892,-0.422914,-2.37318,0
40920,-0.779499,-0.423338,-2.37098,0
40940,-0.77994,-0.424059,-2.36908,0
40960,-0.78029,-0.424938,-2.36707,0
40980,-0.779586,-0.425656,-2.36446,0
41000,-0.778037,-0.426947,-2.3627,0
41020,-0.776117,-0.428659,-2.36182,0
41040,-0.77524,-0.430529,-2.36062,0
41060,-0.774527,-0.432632,-2.35846,0
41080,-0.773298,-0.434661,-2.35601,0
41100,-0.771748,-0.437161,-2.35414,0
41120,-0.770308,-0.439808,-2.35238,0
41140,-0.769794,-0.442425,-2.35006,0
41160,-0.769688,-0.444653,-2.34792,0
41180,-0.76907,-0.446809,-2.3464,0
41200,-0.768686,-0.449435,-2.34419,0
41220,-0.768234,-0.452293,-2.34168,0
41240,-0.767818,-0.455444,-2.34057,0
41260,-0.766452,-0.458491,-2.34049,0
41280,-0.765488,-0.461042,-2.3393,0
41300,-0.764663,-0.463542,-2.33709,0
41320,-0.764288,-0.465959,-2.33462,0
41340,-0.764017,-0.469043,-2.33341,0
41360,-0.764326,-0.471618,-2.33314,0
41380,-0.765129,-0.473665,-2.33323,0
41400,-0.766269,-0.474756,-2.33355,0
41420,-0.767207,-0.474348,-2.33426,0
41440,-0.768324,-0.473587,-2.33549,0
41460,-0.769343,-0.47269,-2.33815,0
41480,-0.771144,-0.471568,-2.34042,0
41500,-0.775252,-0.471086,-2.34231,0
41520,-0.778853,-0.469655,-2.34498,0
41540,-0.784188,-0.466735,-2.34858,0
41560,-0.79077,-0.463234,-2.35298,0
41580,-0.79876,-0.459503,-2.3566,0
41600,-0.807991,-0.456207,-2.35894,0
41620,-0.815089,-0.452816,-2.35895,0
41640,-0.819762,-0.449441,-2.35807,0
41660,-0.822184,-0.446748,-2.35793,0
41680,-0.824044,-0.443928,-2.35907,0
41700,-0.827058,-0.440347,-2.35956,0
41720,-0.831552,-0.436741,-2.35962,0
41740,-0.836088,-0.433818,-2.35949,0
41760,-0.837978,-0.431037,-2.3599,0
41780,-0.837621,-0.428797,-2.36019,0
41800,-0.837187,-0.427163,-2.36038,0
41820,-0.836494,-0.42622,-2.36096,0
41840,-0.836058,-0.425453,-2.36225,0
41860,-0.836045,-0.425149,-2.36224,0
41880,-0.83582,-0.424602,-2.36181,0
41900,-0.835671,-0.424431,-2.36122,0
41920,-0.836249,-0.424319,-2.36101,0
41940,-0.838054,-0.423958,-2.36081,0
41960,-0.840002,-0.423064,-2.36054,0
41980,-0.840465,-0.422558,-2.36001,0
42000,-0.841281,-0.422609,-2.3588,0
42020,-0.841431,-0.422671,-2.35704,0
42040,-0.841538,-0.422456,-2.35614,0
42060,-0.843165,-0.422427,-2.35586,0
42080,-0.846174,-0.422556,-2.35639,0
42100,-0.848398,-0.422378,-2.35704,0
42120,-0.850152,-0.421693,-2.35636,0
42140,-0.850485,-0.421468,-2.35524,0
42160,-0.848064,-0.421516,-2.35529,0
42180,-0.846527,-0.422235,-2.35462,0
42200,-0.845751,-0.422105,-2.35317,0
42220,-0.845281,-0.421368,-2.35162,0
42240,-0.844615,-0.421478,-2.3505,0
42260,-0.843617,-0.421591,-2.34949,0
42280,-0.843073,-0.421877,-2.3477,0
42300,-0.842309,-0.422418,-2.34556,0
42320,-0.841219,-0.423295,-2.34318,0
42340,-0.840504,-0.424467,-2.34027,0
42360,-0.838982,-0.425751,-2.33856,0
42380,-0.837638,-0.426798,-2.33637,0
42400,-0.837491,-0.427672,-2.33313,0
42420,-0.837582,-0.428774,-2.32987,0
42440,-0.837874,-0.430308,-2.32713,0
42460,-0.838566,-0.43163,-2.32502,0
42480,-0.838703,-0.43311,-2.32325,0
42500,-0.838794,-0.434856,-2.32129,0
42520,-0.838518,-0.436445,-2.31897,0
42540,-0.837813,-0.438557,-2.31765,0
42560,-0.836997,-0.441612,-2.31753,0
42580,-0.836394,-0.444127,-2.31698,0
42600,-0.835576,-0.446223,-2.31636,0
42620,-0.834316,-0.44841,-2.31598,0
42640,-0.832758,-0.450742,-2.31528,0
42660,-0.831219,-0.4535,-2.31447,0
42680,-0.829444,-0.456581,-2.31433,0
42700,-0.82785,-0.459358,-2.3144,0
42720,-0.826836,-0.461946,-2.31495,0
42740,-0.826574,-0.464186,-2.3157,0
42760,-0.826305,-0.465769,-2.31684,0
42780,-0.826053,-0.466483,-2.31863,0
42800,-0.827222,-0.467092,-2.32151,0
42820,-0.829705,-0.467157,-2.32457,0
42840,-0.832592,-0.467903,-2.32858,0
42860,-0.836542,-0.468621,-2.33214,0
42880,-0.844457,-0.468563,-2.33329,0
42900,-0.854935,-0.468649,-2.33326,0
42920,-0.869659,-0.468415,-2.33354,0
42940,-0.886664,-0.467415,-2.33325,0
42960,-0.905422,-0.465043,-2.33244,0
42980,-0.923193,-0.462952,-2.33067,0
43000,-0.939737,-0.460546,-2.32719,0
43020,-0.955189,-0.458134,-2.32256,0
43030,-0.966483,-0.456064,-2.31899,2000
43050,-0.976492,-0.453759,-2.3162,0
43070,-0.985679,-0.450886,-2.31445,0
43090,-0.994914,-0.447715,-2.31322,0
43110,-1.00227,-0.444616,-2.31151,0
43130,-1.00752,-0.441648,-2.31001,0
43150,-1.01165,-0.439485,-2.31012,0
43170,-1.01559,-0.437554,-2.31058,0
43190,-1.02115,-0.435685,-2.31024,0
43210,-1.02572,-0.433636,-2.30919,0
43230,-1.02816,-0.431012,-2.30857,0
43250,-1.02858,-0.429026,-2.30852,0
43270,-1.03038,-0.427062,-2.30746,0
43290,-1.03254,-0.424997,-2.30646,0
43310,-1.03318,-0.423544,-2.30698,0
43330,-1.03269,-0.421199,-2.30759,0
43350,-1.03251,-0.418992,-2.30804,0
43370,-1.03217,-0.417466,-2.30941,0
43390,-1.03104,-0.415496,-2.31133,0
43410,-1.02798,-0.413467,-2.31346,0
43430,-1.02334,-0.412566,-2.31577,0
43450,-1.0179,-0.412195,-2.31862,0
43470,-1.01361,-0.412221,-2.32209,0
43500,-1.00684,-0.410849,-2.32874,0
43520,-1.00342,-0.410176,-2.33139,0
43540,-1.00019,-0.410418,-2.33473,0
43560,-0.996854,-0.410826,-2.33839,0
43580,-0.993405,-0.410768,-2.34167,0
43600,-0.989946,-0.410308,-2.34412,0
43620,-0.986535,-0.410094,-2.34712,0
43640,-0.982873,-0.409189,-2.35054,0
43660,-0.98178,-0.407761,-2.3529,0
43680,-0.980483,-0.407,-2.35485,0
43700,-0.977711,-0.407564,-2.35757,0
43720,-0.973424,-0.408393,-2.35953,0
43740,-0.968383,-0.409235,-2.35995,0
43760,-0.96388,-0.410613,-2.35985,0
43780,-0.958495,-0.41225,-2.36073,0
43800,-0.954131,-0.414032,-2.36163,0
43820,-0.950087,-0.41599,-2.36171,0
43840,-0.945707,-0.418406,-2.36153,0
43860,-0.940697,-0.420735,-2.36142,0
43880,-0.936728,-0.423618,-2.36151,0
43900,-0.933605,-0.42632,-2.36181,0
43920,-0.930624,-0.428959,-2.36318,0
43940,-0.926111,-0.4315,-2.36395,0
43960,-0.921207,-0.434672,-2.36406,0
43980,-0.916329,-0.438743,-2.36447,0
44000,-0.911133,-0.442553,-2.36554,0
44020,-0.906742,-0.446307,-2.36711,0
44040,-0.901811,-0.448504,-2.36911,0
44060,-0.896865,-0.449812,-2.37164,0
44080,-0.890431,-0.450355,-2.37505,0
44100,-0.883711,-0.450661,-2.38004,0
44120,-0.876464,-0.450173,-2.38661,0
44140,-0.868505,-0.449397,-2.39315,0
44160,-0.861453,-0.448578,-2.39956,0
44180,-0.853612,-0.447113,-2.40654,0
44200,-0.84755,-0.445206,-2.41297,0
44220,-0.841206,-0.442684,-2.4184,0
44240,-0.833313,-0.438795,-2.42345,0
44260,-0.826189,-0.434465,-2.42749,0
44280,-0.820194,-0.431116,-2.43013,0
44300,-0.814786,-0.428541,-2.43244,0
44320,-0.810395,-0.425775,-2.4346,0
44340,-0.806885,-0.422758,-2.43591,0
44360,-0.803746,-0.420615,-2.4366,0
44380,-0.799904,-0.418889,-2.43705,0
44400,-0.795554,-0.417253,-2.43732,0
44420,-0.79345,-0.415935,-2.43693,0
44440,-0.792352,-0.414779,-2.43656,0
44460,-0.791585,-0.413411,-2.43627,0
44480,-0.789809,-0.412638,-2.43557,0
44500,-0.78788,-0.413111,-2.4349,0
44520,-0.785127,-0.413944,-2.43499,0
44540,-0.783403,-0.41475,-2.43543,0
44560,-0.782639,-0.415024,-2.43558,0
44580,-0.782644,-0.415315,-2.43471,0
44600,-0.783138,-0.415852,-2.43366,0
44620,-0.783866,-0.416079,-2.4315,0
44640,-0.785398,-0.416282,-2.42823,0
44660,-0.787191,-0.416669,-2.424,0
44680,-0.789139,-0.417086,-2.41914,0
44700,-0.792521,-0.417076,-2.41346,0
44720,-0.79675,-0.41644,-2.40803,0
44740,-0.801517,-0.4159,-2.40172,0
44760,-0.806698,-0.416348,-2.39394,0
44780,-0.810121,-0.417724,-2.3864,0
44800,-0.812389,-0.419269,-2.3796,0
44820,-0.813411,-0.420878,-2.37354,0
44840,-0.814434,-0.42194,-2.36849,0
44860,-0.815351,-0.423491,-2.36343,0
44880,-0.8163,-0.426045,-2.35904,0
44900,-0.816008,-0.429601,-2.35584,0
44920,-0.815482,-0.432556,-2.35287,0
44940,-0.815668,-0.43464,-2.34982,0
44960,-0.816816,-0.436956,-2.34658,0
44980,-0.817502,-0.439851,-2.3441,0
44990,-0.816365,-0.442686,-2.34229,0
45010,-0.814807,-0.444991,-2.34076,0
45030,-0.813977,-0.447078,-2.33975,0
45050,-0.813212,-0.449322,-2.33879,0
45070,-0.812248,-0.451762,-2.33819,0
45090,-0.81089,-0.454788,-2.338,0
45110,-0.809499,-0.457203,-2.33779,0
45130,-0.808182,-0.458889,-2.3378,0
45150,-0.806961,-0.46066,-2.33815,0
45170,-0.80588,-0.462345,-2.33794,0
45190,-0.80528,-0.464417,-2.33751,0
45210,-0.805169,-0.466217,-2.33722,0
45230,-0.804988,-0.467438,-2.337,0
45250,-0.803922,-0.467903,-2.33639,0
45270,-0.801792,-0.468802,-2.33552,0
45290,-0.799562,-0.470041,-2.33511,0
45310,-0.798528,-0.471545,-2.33532,0
45330,-0.797555,-0.473203,-2.33559,0
45350,-0.796214,-0.47483,-2.33538,0
45370,-0.79452,-0.476223,-2.33459,0
45390,-0.793414,-0.478007,-2.33367,0
45410,-0.793145,-0.480044,-2.333,0
45430,-0.792812,-0.482153,-2.33249,0
45450,-0.793403,-0.483768,-2.33139,0
45470,-0.793478,-0.484925,-2.33025,0
45490,-0.792773,-0.486317,-2.32951,0
45510,-0.79109,-0.488269,-2.3299,0
45530,-0.789173,-0.490524,-2.33006,0
45550,-0.787463,-0.492551,-2.3302,0
45570,-0.785833,-0.494427,-2.32996,0
45590,-0.783987,-0.495877,-2.32963,0
45610,-0.782483,-0.497607,-2.32857,0
45630,-0.78154,-0.498901,-2.32724,0
45650,-0.781023,-0.499728,-2.32682,0
45670,-0.780678,-0.500362,-2.32647,0
45690,-0.780973,-0.501405,-2.32566,0
45710,-0.781923,-0.50225,-2.32444,0
45730,-0.782348,-0.503357,-2.32399,0
45750,-0.782065,-0.504742,-2.32463,0
45770,-0.780959,-0.507387,-2.32588,0
45790,-0.780173,-0.509767,-2.32564,0
45810,-0.779024,-0.512227,-2.32528,0
45830,-0.776701,-0.515545,-2.32641,0
45850,-0.773548,-0.519383,-2.32781,0
45870,-0.771914,-0.522474,-2.32845,0
45890,-0.771685,-0.526024,-2.32915,0
45910,-0.772355,-0.528964,-2.33028,0
45930,-0.772712,-0.531866,-2.33097,0
45950,-0.771974,-0.533878,-2.33169,0
45970,-0.770727,-0.535217,-2.33265,0
45990,-0.770033,-0.536586,-2.3333,0
46010,-0.769645,-0.53762,-2.33476,0
46030,-0.768601,-0.538376,-2.33668,0
46050,-0.766796,-0.539456,-2.33883,0
46070,-0.764381,-0.540988,-2.34075,0
46090,-0.762197,-0.542868,-2.34255,0
46110,-0.75961,-0.544879,-2.34496,0
46130,-0.758404,-0.546765,-2.34739,0
46150,-0.757549,-0.549315,-2.34982,0
46170,-0.755532,-0.55182,-2.35248,0
46190,-0.753949,-0.55393,-2.35534,0
46210,-0.752977,-0.555449,-2.35843,0
46230,-0.752274,-0.557289,-2.3613,0
46250,-0.750753,-0.559469,-2.36402,0
46270,-0.748937,-0.561264,-2.36669,0
46290,-0.747662,-0.562918,-2.3694,0
46310,-0.746633,-0.56499,-2.37227,0
46330,-0.745886,-0.567043,-2.37493,0
46350,-0.745449,-0.569124,-2.3774,0
46370,-0.745419,-0.570952,-2.37937,0
46390,-0.744915,-0.573142,-2.38168,0
46410,-0.744213,-0.575362,-2.38444,0
46430,-0.744112,-0.577873,-2.38719,0
46450,-0.743662,-0.580118,-2.39023,0
46470,-0.74197,-0.582402,-2.39334,0
46490,-0.740098,-0.585417,-2.3966,0
46510,-0.73825,-0.588537,-2.39979,0
46530,-0.737139,-0.591791,-2.40311,0
46550,-0.736215,-0.594766,-2.40624,0
46570,-0.734661,-0.597665,-2.40953,0
46590,-0.733371,-0.600354,-2.41244,0
46610,-0.732238,-0.603068,-2.41552,0
46630,-0.731115,-0.605567,-2.4185,0
46650,-0.72914,-0.608098,-2.42234,0
46670,-0.727474,-0.610387,-2.42571,0
46690,-0.725879,-0.612637,-2.42956,0
46710,-0.724362,-0.614564,-2.43348,0
46730,-0.722377,-0.616506,-2.43815,0
46750,-0.720275,-0.618249,-2.44257,0
46770,-0.718236,-0.619628,-2.44742,0
46790,-0.71614,-0.620841,-2.45221,0
46810,-0.714487,-0.621873,-2.45676,0
46830,-0.712666,-0.623489,-2.46166,0
46850,-0.710898,-0.625141,-2.46678,0
46870,-0.708845,-0.626514,-2.4717,0
46890,-0.706748,-0.627789,-2.47687,0
46910,-0.70467,-0.629331,-2.48254,0
46930,-0.703164,-0.63076,-2.48822,0
46950,-0.701488,-0.632162,-2.49378,0
46970,-0.699492,-0.633967,-2.49936,0
46990,-0.696414,-0.63579,-2.50599,0
47010,-0.69336,-0.637539,-2.51291,0
47030,-0.690676,-0.639873,-2.51957,0
47050,-0.688471,-0.642513,-2.52563,0
47070,-0.685777,-0.644882,-2.53197,0
47090,-0.683557,-0.647395,-2.53822,0
47110,-0.681166,-0.650593,-2.54465,0
47130,-0.678305,-0.653628,-2.55133,0
47150,-0.675707,-0.65663,-2.55822,0
47170,-0.673389,-0.659222,-2.56543,0
47190,-0.671219,-0.661829,-2.57228,0
47210,-0.668624,-0.664806,-2.57917,0
47230,-0.666204,-0.667578,-2.5856,0
47250,-0.663752,-0.67024,-2.5921,0
47270,-0.661167,-0.672823,-2.59928,0
47290,-0.658365,-0.67507,-2.60642,0
47310,-0.655462,-0.677731,-2.61333,0
47330,-0.652057,-0.680072,-2.62003,0
47350,-0.648831,-0.682037,-2.62643,0
47370,-0.645816,-0.684139,-2.63304,0
47390,-0.643126,-0.685901,-2.63917,0
47410,-0.641212,-0.687475,-2.64498,0
47430,-0.639044,-0.6881,-2.65048,0
47450,-0.636945,-0.68867,-2.65562,0
47470,-0.634994,-0.689035,-2.66077,0
47490,-0.633728,-0.689527,-2.66567,0
47510,-0.632866,-0.689889,-2.67066,0
47530,-0.630631,-0.690051,-2.67602,0
47550,-0.627652,-0.690269,-2.68128,0
47570,-0.625006,-0.690865,-2.68644,0
47590,-0.62251,-0.691225,-2.69197,0
47610,-0.620478,-0.691352,-2.69747,0
47630,-0.618083,-0.691312,-2.70316,0
47650,-0.61555,-0.690991,-2.7083,0
47670,-0.613154,-0.690592,-2.71331,0
47690,-0.610882,-0.690478,-2.71876,0
47710,-0.608133,-0.690313,-2.72456,0
47730,-0.605397,-0.69056,-2.73032,0
47750,-0.602387,-0.691005,-2.73626,0
47770,-0.599612,-0.691989,-2.74211,0
47790,-0.596251,-0.693283,-2.74856,0
47810,-0.593654,-0.694658,-2.75452,0
47830,-0.59143,-0.696182,-2.76005,0
47850,-0.588412,-0.697643,-2.76637,0
47870,-0.585277,-0.699229,-2.77358,0
47890,-0.582086,-0.700189,-2.78027,0
47910,-0.578982,-0.701377,-2.78667,0
47930,-0.575708,-0.702365,-2.79338,0
47950,-0.572399,-0.703676,-2.80036,0
47970,-0.569114,-0.704773,-2.80712,0
47980,-0.566265,-0.70569,-2.81333,0
48000,-0.563548,-0.706805,-2.81912,0
48020,-0.560453,-0.708083,-2.82515,0
48040,-0.557808,-0.709158,-2.83098,0
48060,-0.556026,-0.710071,-2.83628,0
48070,-0.554531,-0.710706,-2.84168,0
48090,-0.552287,-0.71105,-2.84765,0
48110,-0.549467,-0.711536,-2.85394,0
48130,-0.546707,-0.712278,-2.85958,0
48150,-0.543134,-0.71287,-2.86598,0
48170,-0.539568,-0.713607,-2.87267,0
48190,-0.53657,-0.714022,-2.87896,0
48210,-0.533516,-0.713987,-2.88514,0
48230,-0.530487,-0.714597,-2.89104,0
48250,-0.527749,-0.715522,-2.89667,0
48270,-0.525043,-0.716532,-2.90222,0
48290,-0.5222,-0.717601,-2.90789,0
48310,-0.519312,-0.71888,-2.91382,0
48330,-0.516938,-0.720351,-2.91911,0
48350,-0.515816,-0.721835,-2.92372,0
48370,-0.514122,-0.723187,-2.92899,0
48380,-0.511991,-0.724427,-2.93454,0
48400,-0.509184,-0.725677,-2.94076,0
48420,-0.506417,-0.726682,-2.94689,0
48440,-0.503881,-0.727214,-2.95307,0
48460,-0.500907,-0.727235,-2.95945,0
48480,-0.497539,-0.727457,-2.966,0
48500,-0.494527,-0.727502,-2.97253,0
48520,-0.490799,-0.727661,-2.97961,0
48540,-0.486481,-0.72764,-2.98647,0
48560,-0.482644,-0.72763,-2.99239,0
48580,-0.479662,-0.728071,-2.99774,0
48600,-0.4762,-0.728596,-3.00365,0
48620,-0.473482,-0.728351,-3.00907,0
48640,-0.472383,-0.728509,-3.01296,0
48660,-0.470576,-0.728945,-3.01705,0
48680,-0.46788,-0.729198,-3.02122,0
48700,-0.466315,-0.72938,-3.02464,0
48720,-0.464678,-0.72892,-3.02856,0
48740,-0.463461,-0.728417,-3.03255,0
48760,-0.462602,-0.728188,-3.03602,0
48780,-0.46102,-0.728309,-3.0394,0
48800,-0.458847,-0.728125,-3.04347,0
48820,-0.456984,-0.727859,-3.0475,0
48840,-0.454961,-0.727416,-3.05192,0
48860,-0.452352,-0.727536,-3.05622,0
48880,-0.44989,-0.728089,-3.05998,0
48900,-0.448229,-0.728357,-3.06361,0
48920,-0.446606,-0.728331,-3.06748,0
48940,-0.444566,-0.728171,-3.07165,0
48960,-0.442944,-0.72804,-3.07513,0
48980,-0.44141,-0.728162,-3.07874,0
49000,-0.439414,-0.727771,-3.08242,0
49020,-0.436951,-0.72673,-3.08641,0
49040,-0.434827,-0.725147,-3.08971,0
49060,-0.433598,-0.724347,-3.09241,0
49080,-0.431848,-0.723643,-3.09536,0
49100,-0.429274,-0.722708,-3.09868,0
49120,-0.427145,-0.721818,-3.10154,0
49140,-0.426229,-0.720601,-3.10363,0
49160,-0.424707,-0.719131,-3.10589,0
49180,-0.422947,-0.717261,-3.10831,0
49200,-0.421576,-0.716117,-3.11094,0
49220,-0.42003,-0.71504,-3.11335,0
49240,-0.418488,-0.713195,-3.11592,0
49260,-0.417446,-0.711472,-3.11827,0
49280,-0.415894,-0.710347,-3.12108,0
49300,-0.41461,-0.709171,-3.12354,0
49320,-0.413025,-0.707713,-3.12646,0
49340,-0.410794,-0.705886,-3.12951,0
49360,-0.408662,-0.704893,-3.13183,0
49380,-0.407691,-0.704298,-3.13323,0
49400,-0.406516,-0.704102,-3.13573,0
49420,-0.403429,-0.703465,-3.13964,0
49440,-0.399939,-0.702714,3.14001,0
49460,-0.397278,-0.70169,3.13762,0
49480,-0.395057,-0.7016,3.13521,0
49500,-0.391867,-0.701747,3.13261,0
49520,-0.389362,-0.701776,3.13012,0
49540,-0.388663,-0.701494,3.12861,0
49560,-0.388843,-0.700569,3.12743,0
49580,-0.38861,-0.699681,3.12584,0
49600,-0.388797,-0.698853,3.1247,0
49620,-0.389628,-0.698113,3.12461,0
49640,-0.391055,-0.697329,3.1239,0
49660,-0.391945,-0.696031,3.1229,0
49680,-0.392966,-0.694916,3.12226,0
49700,-0.39384,-0.694428,3.12181,0
49720,-0.394672,-0.693694,3.12172,0
49740,-0.395251,-0.692694,3.12094,0
49760,-0.396461,-0.691744,3.12038,0
49780,-0.39805,-0.691299,3.12006,0
49800,-0.39964,-0.691263,3.1201,0
49820,-0.400991,-0.690912,3.11985,0
49840,-0.402887,-0.689708,3.12014,0
49860,-0.405053,-0.688747,3.12046,0
49880,-0.407958,-0.688503,3.12158,0
49900,-0.410514,-0.68868,3.12239,0
49920,-0.411916,-0.688398,3.12232,0
49940,-0.413952,-0.687574,3.12261,0
49960,-0.416003,-0.687167,3.12286,0
49980,-0.417563,-0.686901,3.12283,0
50000,-0.41907,-0.686413,3.12338,0
50020,-0.420312,-0.685438,3.12337,0
50040,-0.420555,-0.683925,3.12247,0
50060,-0.421604,-0.682608,3.1223,0
50080,-0.423285,-0.681744,3.1227,0
50100,-0.424186,-0.68036,3.12284,0
50120,-0.424046,-0.678282,3.1225,0
50140,-0.424792,-0.675992,3.1224,0
50160,-0.427208,-0.674139,3.12326,0
50180,-0.429209,-0.672445,3.12398,0
50200,-0.430158,-0.670917,3.124,0
50220,-0.431314,-0.668725,3.12472,0
50240,-0.432817,-0.666398,3.12524,0
50260,-0.4342,-0.664181,3.12552,0
50280,-0.435392,-0.662608,3.12585,0
50300,-0.435563,-0.661461,3.12579,0
50320,-0.435172,-0.659663,3.1254,0
50340,-0.436287,-0.657888,3.12551,0
50360,-0.437902,-0.656481,3.12589,0
50370,-0.438351,-0.655185,3.12548,0
50390,-0.439032,-0.653555,3.12588,0
50410,-0.439858,-0.652145,3.12663,0
50430,-0.440878,-0.650776,3.12721,0
50450,-0.44194,-0.649375,3.12792,0
50470,-0.443052,-0.647641,3.12843,0
50490,-0.44437,-0.645681,3.12882,0
50510,-0.445265,-0.643688,3.12962,0
50530,-0.44687,-0.642198,3.13111,0
50550,-0.448133,-0.640639,3.13251,0
50570,-0.448925,-0.638919,3.13332,0
50590,-0.449427,-0.636517,3.13372,0
50610,-0.449649,-0.634361,3.1345,0
50630,-0.45062,-0.632734,3.13574,0
50650,-0.451692,-0.631511,3.13686,0
50670,-0.452899,-0.629955,3.13769,0
50690,-0.45435,-0.628141,3.13855,0
50710,-0.455621,-0.626724,3.13995,0
50730,-0.457073,-0.626366,-3.14115,0
50750,-0.457514,-0.626212,-3.14049,0
50770,-0.457654,-0.62555,-3.14035,0
50790,-0.458207,-0.625344,-3.13983,0
50810,-0.459488,-0.625474,-3.13832,0
50830,-0.460524,-0.625862,-3.13684,0
50850,-0.460519,-0.625831,-3.13607,0
50870,-0.461554,-0.625404,-3.13516,0
50890,-0.463663,-0.625111,-3.13312,0
50910,-0.465583,-0.625027,-3.13118,0
50930,-0.46665,-0.624408,-3.12981,0
50950,-0.4677,-0.623335,-3.12786,0
50970,-0.470175,-0.622411,-3.12533,0
50990,-0.472561,-0.622206,-3.12275,0
51010,-0.474525,-0.621577,-3.12015,0
51030,-0.476364,-0.620981,-3.11761,0
51050,-0.478647,-0.619991,-3.11513,0
51070,-0.480757,-0.61924,-3.11295,0
51090,-0.482263,-0.618077,-3.11114,0
51110,-0.483742,-0.617396,-3.10889,0
51130,-0.485116,-0.616829,-3.10685,0
51150,-0.485942,-0.615973,-3.10481,0
51170,-0.488087,-0.615007,-3.10241,0
51190,-0.490546,-0.614243,-3.09982,0
51210,-0.492651,-0.613135,-3.09746,0
51230,-0.495142,-0.612066,-3.09469,0
51250,-0.496659,-0.610794,-3.09242,0
51270,-0.498679,-0.609138,-3.0901,0
51290,-0.501543,-0.608008,-3.08699,0
51310,-0.503981,-0.606962,-3.08438,0
51330,-0.506104,-0.605634,-3.08181,0
51350,-0.508725,-0.603455,-3.07945,0
51370,-0.511422,-0.601614,-3.07739,0
51390,-0.51427,-0.599899,-3.07482,0
51410,-0.516684,-0.598866,-3.07184,0
51430,-0.518902,-0.598056,-3.06874,0
51450,-0.520796,-0.596161,-3.06574,0
51470,-0.522938,-0.5941,-3.06195,0
51490,-0.524344,-0.594002,-3.05781,0
51510,-0.525354,-0.593973,-3.05384,0
51530,-0.527871,-0.593109,-3.05012,0
51550,-0.531085,-0.592203,-3.04713,0
51570,-0.535901,-0.591676,-3.0434,0
51590,-0.540237,-0.591648,-3.03923,0
51610,-0.543236,-0.5913,-3.03549,0
51630,-0.545913,-0.5907,-3.03138,0
51650,-0.549372,-0.590128,-3.02687,0
51670,-0.553868,-0.589334,-3.02238,0
51690,-0.558609,-0.588676,-3.01845,0
51710,-0.562711,-0.587561,-3.01453,0
51730,-0.5662,-0.586307,-3.01053,0
51750,-0.56951,-0.585195,-3.00623,0
51770,-0.572774,-0.584606,-3.00192,0
51790,-0.574992,-0.584096,-2.99846,0
51810,-0.577143,-0.58269,-2.99518,0
51830,-0.581106,-0.5811,-2.99113,0
51850,-0.585577,-0.580448,-2.9867,0
51870,-0.588182,-0.579938,-2.98286,0
51890,-0.590393,-0.578953,-2.97877,0
51910,-0.593275,-0.578435,-2.97403,0
51930,-0.596435,-0.578422,-2.96959,0
51950,-0.598976,-0.577885,-2.96585,0
51970,-0.602208,-0.576991,-2.96118,0
51990,-0.60494,-0.576428,-2.95688,0
52010,-0.606886,-0.575428,-2.95349,0
52030,-0.608531,-0.57395,-2.94925,0
52050,-0.60989,-0.573625,-2.94397,0
52070,-0.611304,-0.574136,-2.93871,0
52090,-0.613506,-0.574607,-2.93384,0
52110,-0.616051,-0.574609,-2.92928,0
52130,-0.619879,-0.57454,-2.92449,0
52150,-0.62456,-0.57434,-2.91985,0
52170,-0.629157,-0.573102,-2.91552,0
52190,-0.633212,-0.571442,-2.91107,0
52210,-0.635699,-0.570126,-2.90677,0
52230,-0.637362,-0.56877,-2.90283,0
52250,-0.64027,-0.568201,-2.89888,0
52270,-0.643492,-0.567142,-2.89565,0
52290,-0.646873,-0.565417,-2.89244,0
52310,-0.650015,-0.563534,-2.88884,0
52330,-0.652354,-0.561889,-2.88548,0
52350,-0.65509,-0.560096,-2.88209,0
52370,-0.657061,-0.55793,-2.87978,0
52390,-0.659362,-0.555797,-2.8775,0
52410,-0.662814,-0.55411,-2.8747,0
52430,-0.665566,-0.552446,-2.87195,0
52450,-0.666899,-0.550685,-2.86995,0
52470,-0.668182,-0.549317,-2.86793,0
52490,-0.669254,-0.548067,-2.86539,0
52510,-0.670356,-0.546777,-2.86272,0
52530,-0.671109,-0.545891,-2.86006,0
52550,-0.672268,-0.545609,-2.85713,0
52570,-0.67391,-0.545397,-2.85404,0
52590,-0.675887,-0.544803,-2.85118,0
52610,-0.678196,-0.544608,-2.84779,0
52630,-0.679817,-0.544505,-2.84386,0
52650,-0.681102,-0.544847,-2.8403,0
52670,-0.682177,-0.545191,-2.83682,0
52690,-0.684854,-0.545497,-2.83301,0
52710,-0.686963,-0.545871,-2.82935,0
52730,-0.688903,-0.545952,-2.82561,0
52750,-0.691009,-0.546393,-2.82129,0
52770,-0.693641,-0.546895,-2.81649,0
52790,-0.696487,-0.54737,-2.81203,0
52810,-0.699699,-0.547202,-2.80746,0
52830,-0.703124,-0.546793,-2.80302,0
52850,-0.70733,-0.546744,-2.79775,0
52870,-0.711881,-0.546875,-2.79235,0
52890,-0.715472,-0.546555,-2.78792,0
52910,-0.718579,-0.545747,-2.78324,0
52930,-0.722176,-0.544987,-2.77842,0
52950,-0.72603,-0.544224,-2.77409,0
52970,-0.729007,-0.543346,-2.76972,0
52990,-0.731321,-0.542647,-2.76566,0
53010,-0.733689,-0.541761,-2.76156,0
53030,-0.736448,-0.541242,-2.75701,0
53050,-0.738741,-0.541105,-2.75263,0
53070,-0.740827,-0.540454,-2.74837,0
53090,-0.744104,-0.539895,-2.74309,0
53110,-0.747409,-0.539695,-2.73848,0
53130,-0.750198,-0.53909,-2.73423,0
53150,-0.753276,-0.538509,-2.7297,0
53170,-0.756323,-0.53827,-2.725,0
53190,-0.761812,-0.536538,-2.71678,0
53200,-0.764702,-0.535955,-2.71193,0
53220,-0.767388,-0.536584,-2.70643,0
53240,-0.770041,-0.536789,-2.70178,0
53260,-0.77392,-0.536731,-2.69715,0
53280,-0.777003,-0.536174,-2.69256,0
53300,-0.780152,-0.535791,-2.68769,0
53320,-0.782953,-0.535763,-2.68212,0
53340,-0.785426,-0.535711,-2.67718,0
53360,-0.787578,-0.535494,-2.67292,0
53380,-0.790467,-0.535774,-2.66789,0
53400,-0.79381,-0.536379,-2.66313,0
53420,-0.797038,-0.536178,-2.65897,0
53440,-0.800415,-0.535919,-2.65434,0
53460,-0.803947,-0.535958,-2.64937,0
53480,-0.806987,-0.535636,-2.64489,0
53500,-0.810234,-0.535025,-2.64049,0
53520,-0.813927,-0.534376,-2.63622,0
53540,-0.816913,-0.534119,-2.63198,0
53560,-0.818881,-0.533736,-2.6278,0
53580,-0.820993,-0.533442,-2.62311,0
53600,-0.823347,-0.533539,-2.61843,0
53620,-0.826578,-0.533872,-2.61317,0
53640,-0.829202,-0.534185,-2.60842,0
53660,-0.831599,-0.533862,-2.6035,0
53680,-0.833946,-0.533567,-2.59823,0
53700,-0.836855,-0.533307,-2.59293,0
53720,-0.839419,-0.533059,-2.58753,0
53730,-0.84213,-0.532949,-2.5822,0
53750,-0.84513,-0.532251,-2.57742,0
53770,-0.847461,-0.531338,-2.57261,0
53790,-0.849084,-0.530683,-2.56738,0
53810,-0.850711,-0.530027,-2.56216,0
53830,-0.853513,-0.529747,-2.55692,0
53850,-0.856348,-0.52958,-2.55164,0
53870,-0.859574,-0.529117,-2.54657,0
53890,-0.863076,-0.528828,-2.54096,0
53910,-0.866269,-0.529042,-2.53496,0
53930,-0.868642,-0.529425,-2.5294,0
53950,-0.870871,-0.529864,-2.5243,0
53970,-0.874392,-0.53043,-2.51864,0
53990,-0.877147,-0.531688,-2.51396,0
54010,-0.87822,-0.532364,-2.50965,0
54060,-0.883345,-0.538649,-2.48863,0
54080,-0.886191,-0.540119,-2.48299,0
54100,-0.888709,-0.541972,-2.47773,0
54120,-0.889313,-0.543483,-2.47326,0
54140,-0.890485,-0.544498,-2.46787,0
54160,-0.892681,-0.545763,-2.4621,0
54180,-0.895078,-0.547018,-2.45328,0
54200,-0.897583,-0.547924,-2.4468,0
54220,-0.899425,-0.549254,-2.44138,0
54240,-0.900067,-0.550289,-2.43723,0
54260,-0.900907,-0.551067,-2.43218,0
54280,-0.90255,-0.552147,-2.42677,0
54300,-0.903878,-0.553142,-2.42255,0
54320,-0.905436,-0.553662,-2.41806,0
54340,-0.906694,-0.554825,-2.4126,0
54360,-0.907643,-0.55619,-2.40744,0
54380,-0.908389,-0.557511,-2.40282,0
54400,-0.909147,-0.558943,-2.39805,0
54420,-0.910346,-0.560407,-2.39246,0
54440,-0.911925,-0.562088,-2.38682,0
54460,-0.913572,-0.563627,-2.38086,0
54480,-0.91443,-0.565695,-2.37607,0
54500,-0.915988,-0.567655,-2.37107,0
54520,-0.919262,-0.569658,-2.36573,0
54540,-0.921608,-0.572008,-2.36142,0
54560,-0.921126,-0.57442,-2.3577,0
54580,-0.9197,-0.576883,-2.35379,0
54600,-0.918706,-0.579599,-2.3504,0
54620,-0.918491,-0.582479,-2.34671,0
54640,-0.918822,-0.585234,-2.34266,0
54660,-0.920233,-0.588055,-2.33786,0
54680,-0.920558,-0.590666,-2.33338,0
54700,-0.920102,-0.593146,-2.32917,0
54720,-0.920329,-0.595138,-2.32465,0
54740,-0.921851,-0.59696,-2.32025,0
54760,-0.923527,-0.5985,-2.31565,0
54780,-0.923903,-0.600318,-2.31072,0
54800,-0.92356,-0.60202,-2.30574,0
54820,-0.922966,-0.603528,-2.30091,0
54840,-0.923005,-0.604844,-2.29649,0
54860,-0.92298,-0.606001,-2.29201,0
54880,-0.923921,-0.607219,-2.28716,0
54900,-0.92469,-0.608619,-2.28261,0
54920,-0.924653,-0.609774,-2.27807,0
54940,-0.924521,-0.611312,-2.2735,0
54960,-0.924803,-0.612688,-2.26884,0
54980,-0.926143,-0.614301,-2.26394,0
55000,-0.926227,-0.616371,-2.25954,0
55020,-0.925961,-0.618056,-2.25513,0
55040,-0.928161,-0.619669,-2.24955,0
55060,-0.929593,-0.622328,-2.2451,0
55080,-0.9302,-0.624355,-2.24141,0
55100,-0.932595,-0.625779,-2.23682,0
55120,-0.935158,-0.627406,-2.23245,0
55140,-0.936491,-0.629777,-2.22935,0
55160,-0.93651,-0.632035,-2.22656,0
55180,-0.937353,-0.634278,-2.22309,0
55200,-0.938379,-0.636405,-2.21994,0
55240,-0.936409,-0.641192,-2.21629,0
55260,-0.936143,-0.643581,-2.21438,0
55280,-0.935909,-0.646459,-2.21288,0
55300,-0.934482,-0.649198,-2.21174,0
55320,-0.932483,-0.651941,-2.21003,0
55340,-0.930628,-0.65484,-2.20885,0
55360,-0.929311,-0.657209,-2.20821,0
55380,-0.928282,-0.659747,-2.20783,0
55400,-0.926988,-0.662182,-2.20691,0
55420,-0.925459,-0.664449,-2.20671,0
55440,-0.92328,-0.666893,-2.20688,0
55460,-0.920939,-0.670462,-2.20604,0
55480,-0.918029,-0.675134,-2.20471,0
55500,-0.915264,-0.680036,-2.20419,0
55520,-0.911766,-0.684887,-2.20372,0
55540,-0.909366,-0.689666,-2.20321,0
55560,-0.907453,-0.694022,-2.20247,0
55580,-0.906585,-0.697954,-2.20102,0
55600,-0.905289,-0.701782,-2.19988,0
55620,-0.903786,-0.705476,-2.19964,0
55630,-0.902145,-0.708088,-2.19984,0
55650,-0.90011,-0.710659,-2.19999,0
55660,-0.898177,-0.713814,-2.20039,0
55680,-0.896469,-0.716757,-2.20094,0
55710,-0.891312,-0.722895,-2.20429,0
55730,-0.888113,-0.725627,-2.20648,0
55750,-0.884805,-0.728255,-2.20887,0
55770,-0.882072,-0.731025,-2.21125,0
55770,-0.879133,-0.734319,-2.21345,0
55790,-0.876999,-0.737271,-2.2148,0
55800,-0.874404,-0.742984,-2.21712,0
55840,-0.865122,-0.754622,-2.22469,0
55870,-0.857239,-0.770836,-2.23732,0
55900,-0.853158,-0.776731,-2.24472,0
55920,-0.849727,-0.780382,-2.24928,0
55950,-0.841051,-0.790448,-2.25912,0
55970,-0.837878,-0.793895,-2.26304,0
55990,-0.834251,-0.797085,-2.26679,0
56020,-0.830925,-0.802716,-2.27084,0
56040,-0.829764,-0.805009,-2.2729,0
56060,-0.827391,-0.806623,-2.27633,0
56080,-0.8247,-0.807998,-2.27983,0
56100,-0.822995,-0.810038,-2.28163,0
56110,-0.822197,-0.81284,-2.28209,0
56140,-0.817953,-0.818676,-2.28701,0
56160,-0.816832,-0.820977,-2.28926,0
56180,-0.815478,-0.823546,-2.29094,0
56200,-0.813791,-0.826436,-2.29292,0
56210,-0.812047,-0.829597,-2.29571,0
56230,-0.810387,-0.832512,-2.29862,0
56250,-0.809456,-0.835025,-2.30201,0
56270,-0.807967,-0.837294,-2.30659,0
56290,-0.80486,-0.839473,-2.31198,0
56310,-0.801014,-0.841688,-2.31789,0
56330,-0.796864,-0.843586,-2.32459,0
56350,-0.793063,-0.845787,-2.33167,0
56370,-0.789454,-0.847569,-2.33921,0
56390,-0.785919,-0.848788,-2.34618,0
56410,-0.781422,-0.850382,-2.3543,0
56430,-0.776435,-0.851659,-2.36232,0
56450,-0.771403,-0.853811,-2.37038,0
56470,-0.76668,-0.855646,-2.37846,0
56490,-0.763525,-0.857107,-2.38639,0
56510,-0.760207,-0.858571,-2.3949,0
56530,-0.75576,-0.860471,-2.40309,0
56550,-0.75115,-0.862651,-2.41105,0
56570,-0.745321,-0.865176,-2.41931,0
56590,-0.7405,-0.867399,-2.42791,0
56610,-0.736332,-0.869205,-2.43651,0
56630,-0.732157,-0.8704,-2.4452,0
56650,-0.726817,-0.87147,-2.45309,0
56670,-0.720682,-0.872448,-2.46168,0
56690,-0.713408,-0.873822,-2.47177,0
56710,-0.707975,-0.87599,-2.48056,0
56730,-0.702622,-0.878475,-2.48893,0
56750,-0.697905,-0.880743,-2.49563,0
56770,-0.693441,-0.883973,-2.50117,0
56790,-0.68908,-0.887365,-2.50673,0
56810,-0.685098,-0.890596,-2.51272,0
56830,-0.682063,-0.893241,-2.51847,0
56850,-0.679623,-0.895276,-2.52457,0
56870,-0.676392,-0.897401,-2.53077,0
56890,-0.670618,-0.899992,-2.53827,0
56910,-0.664237,-0.902847,-2.54568,0
56930,-0.657579,-0.905368,-2.55396,0
56950,-0.653287,-0.907138,-2.5614,0
56970,-0.649057,-0.909564,-2.56884,0
56990,-0.643531,-0.912402,-2.57609,0
57010,-0.638276,-0.914693,-2.5832,0
57030,-0.63293,-0.915755,-2.59167,0
57050,-0.628669,-0.916778,-2.60036,0
57070,-0.624215,-0.917842,-2.60861,0
57090,-0.621062,-0.91935,-2.61514,0
57110,-0.616352,-0.921424,-2.62364,0
57130,-0.610671,-0.923135,-2.63327,0
57150,-0.605783,-0.924914,-2.64228,0
57170,-0.600298,-0.926977,-2.65178,0
57190,-0.593097,-0.928625,-2.66233,0
57210,-0.585083,-0.929891,-2.67308,0
57230,-0.578309,-0.931046,-2.6833,0
57250,-0.572517,-0.932148,-2.6932,0
57270,-0.567624,-0.933462,-2.70218,0
57290,-0.561995,-0.934873,-2.71133,0
57310,-0.556438,-0.936356,-2.72035,0
57330,-0.551582,-0.93769,-2.72942,0
57350,-0.545559,-0.939045,-2.73947,0
57370,-0.539313,-0.940081,-2.74948,0
57390,-0.530965,-0.940849,-2.76106,0
57410,-0.522747,-0.941543,-2.77183,0
57430,-0.516878,-0.942714,-2.78075,0
57450,-0.511209,-0.94466,-2.78865,0
57470,-0.505829,-0.946537,-2.79566,0
57490,-0.500811,-0.948444,-2.80284,0
57510,-0.495316,-0.950442,-2.81065,0
57530,-0.490594,-0.952225,-2.81766,0
57550,-0.486558,-0.952601,-2.82423,0
57570,-0.481768,-0.953366,-2.83115,0
57590,-0.475861,-0.954094,-2.83877,0
57610,-0.470112,-0.954706,-2.84624,0
57630,-0.467407,-0.955443,-2.85187,0
57650,-0.464101,-0.955902,-2.85869,0
57670,-0.457744,-0.956426,-2.86752,0
57690,-0.451705,-0.957306,-2.87574,0
57710,-0.447186,-0.958413,-2.88305,0
57730,-0.442269,-0.95952,-2.89055,0
57750,-0.437087,-0.960022,-2.89857,0
57770,-0.430962,-0.960634,-2.90759,0
57790,-0.424824,-0.96145,-2.91677,0
57810,-0.41961,-0.961825,-2.92476,0
57830,-0.414956,-0.961739,-2.93258,0
57850,-0.409752,-0.961345,-2.94109,0
57870,-0.404093,-0.960696,-2.94952,0
57890,-0.399623,-0.95978,-2.95698,0
57910,-0.395569,-0.958845,-2.96377,0
57930,-0.391672,-0.957987,-2.97076,0
57950,-0.387868,-0.957313,-2.97771,0
57970,-0.383935,-0.956184,-2.98393,0
57990,-0.37964,-0.955378,-2.99102,0
58010,-0.374777,-0.954074,-2.99879,0
58030,-0.370559,-0.953551,-3.00578,0
58050,-0.366538,-0.953757,-3.01221,0
58070,-0.361926,-0.953665,-3.01934,0
58090,-0.357047,-0.953324,-3.02644,0
58110,-0.351998,-0.95303,-3.0339,0
58130,-0.347422,-0.95238,-3.04113,0
58140,-0.342393,-0.951407,-3.04812,0
58160,-0.337605,-0.95016,-3.05457,0
58180,-0.332676,-0.948993,-3.06113,0
58200,-0.327241,-0.947914,-3.06764,0
58220,-0.32367,-0.946963,-3.07297,0
58240,-0.321722,-0.946025,-3.07762,0
58260,-0.318568,-0.944433,-3.08312,0
58280,-0.313965,-0.942913,-3.08879,0
58300,-0.310933,-0.941489,-3.09253,0
58320,-0.308453,-0.939974,-3.09628,0
58340,-0.30394,-0.938076,-3.10066,0
58360,-0.300113,-0.936532,-3.10325,0
58380,-0.29922,-0.93592,-3.10408,0
58400,-0.299188,-0.93461,-3.10446,0
58420,-0.298362,-0.932312,-3.10679,0
58440,-0.297134,-0.92985,-3.10984,0
58460,-0.297985,-0.928333,-3.1106,0
58480,-0.298115,-0.927281,-3.11156,0
58500,-0.296966,-0.925864,-3.11386,0
58520,-0.297574,-0.924881,-3.1155,0
58540,-0.299308,-0.923996,-3.11628,0
58560,-0.299802,-0.923306,-3.11768,0
58580,-0.298492,-0.922336,-3.12039,0
58600,-0.297384,-0.921404,-3.12276,0
58620,-0.296739,-0.919639,-3.12431,0
58640,-0.299509,-0.918064,-3.12398,0
58660,-0.301913,-0.916869,-3.12478,0
58680,-0.305027,-0.915673,-3.12383,0
58700,-0.308555,-0.914321,-3.12232,0
58720,-0.310023,-0.912275,-3.12287,0
58740,-0.309551,-0.910027,-3.12482,0
58760,-0.309611,-0.908518,-3.12643,0
58780,-0.310751,-0.907445,-3.12675,0
58800,-0.310889,-0.906341,-3.12767,0
58820,-0.309883,-0.904473,-3.12967,0
58840,-0.31058,-0.902474,-3.13132,0
58850,-0.311163,-0.901182,-3.1333,0
58870,-0.310351,-0.899187,-3.13605,0
58890,-0.310415,-0.89632,-3.13715,0
58910,-0.314124,-0.89381,-3.13648,0
58930,-0.318693,-0.890631,-3.13698,0
58950,-0.3253,-0.887509,-3.13642,0
58970,-0.332453,-0.885026,-3.13537,0
58990,-0.3396,-0.883028,-3.1346,0
59010,-0.343876,-0.881458,-3.13603,0
59030,-0.345303,-0.879274,-3.1393,0
59050,-0.345984,-0.876838,-3.1409,0
59070,-0.347221,-0.874763,-3.14083,0
59090,-0.347769,-0.872443,-3.1407,0
59110,-0.347765,-0.869994,-3.14085,0
59130,-0.34761,-0.867348,-3.14045,0
59150,-0.349824,-0.864228,-3.13831,0
59170,-0.356486,-0.861633,-3.13436,0
59190,-0.362285,-0.858932,-3.13193,0
59210,-0.368176,-0.855248,-3.12962,0
59230,-0.375369,-0.852378,-3.12532,0
59250,-0.382954,-0.849514,-3.11966,0
59270,-0.388521,-0.847259,-3.11499,0
59290,-0.391926,-0.845321,-3.11276,0
59310,-0.397483,-0.843426,-3.10972,0
59330,-0.405338,-0.842747,-3.10606,0
59350,-0.410506,-0.841802,-3.10432,0
59370,-0.414421,-0.840565,-3.10226,0
59390,-0.417135,-0.840448,-3.10111,0
59410,-0.418059,-0.840322,-3.10108,0
59430,-0.418898,-0.840426,-3.10135,0
59450,-0.421018,-0.840881,-3.10072,0
59470,-0.42383,-0.841194,-3.09913,0
59490,-0.426707,-0.841023,-3.09811,0
59510,-0.430786,-0.840004,-3.09636,0
59530,-0.436564,-0.83883,-3.09299,0
59550,-0.442934,-0.837678,-3.0894,0
59570,-0.448327,-0.836105,-3.08644,0
59590,-0.455254,-0.834016,-3.08285,0
59610,-0.463387,-0.832301,-3.07855,0
59630,-0.471777,-0.830724,-3.07369,0
59650,-0.477651,-0.828219,-3.07048,0
59670,-0.482695,-0.826104,-3.06766,0
59690,-0.487342,-0.823741,-3.06442,0
59710,-0.492931,-0.820439,-3.06093,0
59730,-0.498945,-0.81679,-3.0582,0
59750,-0.50532,-0.813566,-3.05403,0
59770,-0.51173,-0.809892,-3.04843,0
59790,-0.517066,-0.806131,-3.04457,0
59810,-0.520997,-0.802149,-3.04216,0
59830,-0.526674,-0.798908,-3.03863,0
59850,-0.533339,-0.796432,-3.03328,0
59870,-0.539212,-0.794512,-3.02851,0
59890,-0.544072,-0.791876,-3.02471,0
59910,-0.548969,-0.789197,-3.0208,0
59930,-0.554378,-0.787144,-3.01695,0
59950,-0.560376,-0.785309,-3.013,0
59970,-0.565556,-0.783365,-3.00932,0
59990,-0.570127,-0.781538,-3.00619,0
60010,-0.575505,-0.779424,-3.00293,0
60030,-0.580818,-0.776833,-2.99957,0
60050,-0.58504,-0.773375,-2.9964,0
60070,-0.589097,-0.770609,-2.99209,0
60090,-0.592991,-0.768941,-2.98733,0
60110,-0.596996,-0.767097,-2.98468,0
60130,-0.601683,-0.764651,-2.98312,0
60150,-0.607144,-0.762558,-2.98081,0
60170,-0.611461,-0.761106,-2.97798,0
60190,-0.614058,-0.75992,-2.97583,0
60210,-0.616704,-0.75825,-2.97395,0
60230,-0.622165,-0.756679,-2.97119,0
60250,-0.629332,-0.754755,-2.96824,0
60270,-0.637138,-0.752497,-2.96478,0
60290,-0.645219,-0.750513,-2.96024,0
60310,-0.650459,-0.748446,-2.95646,0
60330,-0.654709,-0.746272,-2.95298,0
60350,-0.660768,-0.743978,-2.94843,0
60370,-0.668101,-0.741566,-2.94435,0
60390,-0.674263,-0.738619,-2.94107,0
60410,-0.680938,-0.7355,-2.93718,0
60430,-0.688812,-0.732148,-2.93292,0
60450,-0.697031,-0.7291,-2.92888,0
60470,-0.702725,-0.726279,-2.92541,0
60490,-0.707892,-0.723843,-2.92091,0
60510,-0.715079,-0.721843,-2.916,0
60530,-0.721394,-0.720152,-2.91265,0
60550,-0.72719,-0.718272,-2.9088,0
60570,-0.733872,-0.717267,-2.90447,0
60590,-0.738727,-0.715967,-2.90086,0
60610,-0.742358,-0.713853,-2.89781,0
60630,-0.746597,-0.71126,-2.89425,0
60650,-0.751635,-0.708751,-2.89049,0
60670,-0.756129,-0.705692,-2.88732,0
60690,-0.760183,-0.70246,-2.88448,0
60710,-0.765206,-0.700103,-2.88012,0
60730,-0.769228,-0.698261,-2.87648,0
60750,-0.772526,-0.696021,-2.87337,0
60770,-0.776018,-0.693902,-2.86984,0
60790,-0.778819,-0.692119,-2.86686,0
60810,-0.780663,-0.69011,-2.86371,0
60820,-0.783775,-0.688534,-2.86014,0
60840,-0.786612,-0.687155,-2.85759,0
60860,-0.789296,-0.685669,-2.85436,0
60880,-0.792827,-0.684038,-2.85109,0
60900,-0.796594,-0.681827,-2.84712,0
60920,-0.801041,-0.679598,-2.84314,0
60940,-0.804636,-0.677301,-2.8398,0
60960,-0.80727,-0.675191,-2.83621,0
60980,-0.808878,-0.673332,-2.83291,0
61000,-0.810856,-0.671827,-2.82938,0
61020,-0.811141,-0.670962,-2.82636,0
61040,-0.81228,-0.670249,-2.82301,0
61060,-0.814699,-0.669504,-2.81962,0
61080,-0.8172,-0.668893,-2.81618,0
61100,-0.819139,-0.668004,-2.81244,0
61120,-0.820984,-0.667773,-2.80776,0
61140,-0.822981,-0.66768,-2.80346,0
61160,-0.826592,-0.666948,-2.79951,0
61180,-0.831342,-0.666195,-2.79484,0
61200,-0.834271,-0.665749,-2.79084,0
61220,-0.835627,-0.665096,-2.78739,0
61240,-0.838147,-0.664789,-2.78341,0
61260,-0.840083,-0.66446,-2.77975,0
61280,-0.841509,-0.664432,-2.77602,0
61300,-0.843117,-0.664566,-2.77197,0
61320,-0.845511,-0.663995,-2.76848,0
61340,-0.849551,-0.663194,-2.76457,0
61360,-0.852767,-0.6621,-2.76065,0
61370,-0.855537,-0.660892,-2.75678,0
61390,-0.858042,-0.660043,-2.75272,0
61410,-0.860597,-0.659414,-2.74846,0
61430,-0.862541,-0.659133,-2.74428,0
61450,-0.864987,-0.658726,-2.73984,0
61470,-0.867733,-0.658169,-2.73584,0
61490,-0.871181,-0.657315,-2.73124,0
61510,-0.873541,-0.656761,-2.72687,0
61530,-0.875202,-0.655936,-2.72288,0
61550,-0.879087,-0.654898,-2.71792,0
61570,-0.884095,-0.654719,-2.71269,0
61590,-0.887473,-0.653934,-2.70837,0
61610,-0.889604,-0.652688,-2.70425,0
61630,-0.892046,-0.652077,-2.69913,0
61650,-0.89389,-0.651899,-2.69393,0
61670,-0.896105,-0.652058,-2.68994,0
61690,-0.898064,-0.652199,-2.68623,0
61710,-0.900107,-0.652164,-2.68178,0
61730,-0.902646,-0.65257,-2.67664,0
61750,-0.904435,-0.653423,-2.67207,0
61770,-0.905449,-0.654127,-2.6681,0
61790,-0.90716,-0.654266,-2.66402,0
61810,-0.909779,-0.654579,-2.65983,0
61830,-0.912601,-0.654937,-2.65576,0
61850,-0.913978,-0.654787,-2.65166,0
61870,-0.915699,-0.655325,-2.64601,0
61890,-0.917737,-0.655435,-2.64087,0
61910,-0.920816,-0.655009,-2.63652,0
61930,-0.924599,-0.654473,-2.63139,0
61950,-0.928429,-0.654203,-2.62617,0
61970,-0.932363,-0.653617,-2.62066,0
61990,-0.934776,-0.652973,-2.6154,0
62010,-0.937747,-0.652555,-2.60938,0
62030,-0.941403,-0.652031,-2.60402,0
62050,-0.946053,-0.651219,-2.59936,0
62070,-0.950918,-0.650258,-2.59411,0
62090,-0.954511,-0.649522,-2.58872,0
62110,-0.955386,-0.649039,-2.58392,0
62130,-0.955146,-0.648331,-2.57939,0
62150,-0.957519,-0.647779,-2.57378,0
62170,-0.96127,-0.647564,-2.56755,0
62190,-0.96484,-0.647386,-2.56136,0
62210,-0.966837,-0.647069,-2.55515,0
62230,-0.970069,-0.647077,-2.54826,0
62250,-0.974905,-0.647352,-2.54104,0
62270,-0.979108,-0.647506,-2.53482,0
62290,-0.983245,-0.647695,-2.52796,0
62310,-0.987428,-0.648309,-2.51996,0
62330,-0.990498,-0.6497,-2.51294,0
62350,-0.992874,-0.650827,-2.50618,0
62370,-0.995767,-0.65203,-2.49869,0
62390,-0.998743,-0.653462,-2.49136,0
62410,-1.00111,-0.654818,-2.48436,0
62430,-1.00422,-0.656142,-2.47683,0
62450,-1.00671,-0.65771,-2.4696,0
62470,-1.00878,-0.65952,-2.46271,0
62490,-1.00964,-0.66149,-2.45569,0
62510,-1.01106,-0.663242,-2.44837,0
62530,-1.01344,-0.664893,-2.44045,0
62550,-1.0163,-0.666832,-2.43224,0
62570,-1.01803,-0.668981,-2.42435,0
62590,-1.01972,-0.670843,-2.41615,0
62610,-1.02358,-0.673122,-2.40717,0
62630,-1.02712,-0.675298,-2.39966,0
62650,-1.02982,-0.676976,-2.39292,0
62670,-1.03334,-0.678784,-2.38496,0
62690,-1.03789,-0.681068,-2.37585,0
62710,-1.0408,-0.683507,-2.36741,0
62730,-1.04187,-0.686205,-2.35973,0
62750,-1.04331,-0.68916,-2.35158,0
62770,-1.04586,-0.692333,-2.34324,0
62790,-1.04841,-0.695166,-2.33566,0
62810,-1.05118,-0.697352,-2.32829,0
62830,-1.05347,-0.699357,-2.32103,0
62850,-1.05555,-0.701214,-2.31369,0
62870,-1.05801,-0.703474,-2.30701,0
62890,-1.06096,-0.705752,-2.30059,0
62910,-1.06346,-0.70871,-2.29417,0
62930,-1.06497,-0.711568,-2.28734,0
62950,-1.06656,-0.713835,-2.28042,0
62970,-1.06971,-0.716015,-2.27297,0
62990,-1.07269,-0.718833,-2.26516,0
63010,-1.07669,-0.721798,-2.25781,0
63030,-1.07958,-0.724926,-2.25131,0
63050,-1.08272,-0.727561,-2.24427,0
63070,-1.08555,-0.730401,-2.23784,0
63090,-1.08798,-0.732601,-2.23139,0
63110,-1.09059,-0.735146,-2.22493,0
63130,-1.0925,-0.737769,-2.21897,0
63150,-1.09372,-0.740569,-2.21415,0
63170,-1.09553,-0.74304,-2.20979,0
63190,-1.09753,-0.745107,-2.20634,0
63210,-1.09896,-0.746648,-2.20304,0
63230,-1.10023,-0.747975,-2.19917,0
63250,-1.10086,-0.749632,-2.19515,0
63270,-1.1012,-0.75144,-2.19081,0
63290,-1.10137,-0.754143,-2.18698,0
63310,-1.10137,-0.756693,-2.18265,0
63330,-1.10154,-0.759359,-2.17779,0
63350,-1.10204,-0.761997,-2.17305,0
63370,-1.10279,-0.764374,-2.16831,0
63390,-1.10386,-0.767074,-2.16358,0
63410,-1.10535,-0.769863,-2.15798,0
63430,-1.10688,-0.771979,-2.15266,0
63450,-1.10792,-0.774137,-2.14792,0
63470,-1.10914,-0.776708,-2.14239,0
63490,-1.11095,-0.779397,-2.13571,0
63510,-1.11352,-0.782426,-2.12847,0
63530,-1.11534,-0.785594,-2.12226,0
63550,-1.11705,-0.788944,-2.11629,0
63570,-1.11973,-0.792766,-2.10972,0
63590,-1.1221,-0.796857,-2.10248,0
63610,-1.12337,-0.801327,-2.09602,0
63630,-1.12366,-0.806061,-2.09017,0
63650,-1.12444,-0.810286,-2.08491,0
63670,-1.12612,-0.814068,-2.07933,0
63690,-1.12697,-0.817914,-2.07359,0
63710,-1.12704,-0.821914,-2.06742,0
63730,-1.12728,-0.825234,-2.06125,0
63750,-1.12832,-0.828666,-2.05593,0
63770,-1.12866,-0.831784,-2.05071,0
63790,-1.13024,-0.835042,-2.0438,0
63810,-1.13278,-0.838497,-2.03657,0
63830,-1.13459,-0.842148,-2.03004,0
63850,-1.13589,-0.845985,-2.02388,0
63870,-1.13696,-0.850031,-2.01839,0
63890,-1.13897,-0.853679,-2.01226,0
63910,-1.14112,-0.857114,-2.0062,0
63930,-1.14194,-0.861031,-2.00147,0
63950,-1.14183,-0.864601,-1.99711,0
63970,-1.14346,-0.868357,-1.99265,0
63990,-1.14604,-0.871844,-1.98842,0
64010,-1.14736,-0.875128,-1.9863,0
64030,-1.14732,-0.877668,-1.98436,0
64050,-1.14775,-0.88064,-1.98166,0
64070,-1.14862,-0.883993,-1.97853,0
64090,-1.15058,-0.88803,-1.97523,0
64110,-1.15119,-0.89203,-1.97327,0
64130,-1.15191,-0.896894,-1.97105,0
64150,-1.15332,-0.901808,-1.96791,0
64170,-1.15612,-0.907213,-1.96427,0
64190,-1.1568,-0.912565,-1.96234,0
64210,-1.15647,-0.917485,-1.96124,0
64220,-1.15753,-0.922348,-1.9596,0
64240,-1.15894,-0.927263,-1.95715,0
64260,-1.15873,-0.931795,-1.95567,0
64280,-1.15889,-0.935766,-1.9544,0
64300,-1.16001,-0.939518,-1.95355,0
64320,-1.16133,-0.943635,-1.95253,0
64340,-1.16202,-0.947456,-1.95137,0
64360,-1.16398,-0.951056,-1.94964,0
64380,-1.16551,-0.9547,-1.94946,0
64400,-1.16497,-0.957829,-1.95154,0
64420,-1.16437,-0.961432,-1.95273,0
64440,-1.16571,-0.965409,-1.95177,0
64460,-1.16746,-0.969752,-1.95083,0
64480,-1.16834,-0.973915,-1.9511,0
64500,-1.16866,-0.978566,-1.95192,0
64520,-1.16981,-0.983254,-1.95235,0
64540,-1.1709,-0.987922,-1.95328,0
64560,-1.17053,-0.992348,-1.95537,0
64580,-1.16928,-0.996889,-1.95821,0
64600,-1.16847,-1.00173,-1.96025,0
64620,-1.16862,-1.00678,-1.96114,0
64640,-1.16894,-1.02883,-1.96666,0
64660,-1.17134,-1.03452,-1.96629,0
64670,-1.17235,-1.04074,-1.96725,0
64670,-1.1711,-1.04675,-1.96973,0
64670,-1.17052,-1.05237,-1.97173,0
64690,-1.17137,-1.05807,-1.9732,0
64710,-1.168,-1.06373,-1.9786,0
64730,-1.16316,-1.06859,-1.98494,0
64750,-1.15804,-1.07315,-1.99111,0
64770,-1.1522,-1.0777,-1.9982,0
64790,-1.14559,-1.0823,-2.00649,0
64810,-1.13888,-1.08664,-2.01498,0
64830,-1.13307,-1.09069,-2.02222,0
64850,-1.12908,-1.09549,-2.02883,0
64870,-1.12514,-1.10038,-2.03522,0
64890,-1.12089,-1.10567,-2.04182,0
64910,-1.11626,-1.11065,-2.04896,0
64930,-1.11162,-1.11535,-2.05703,0
64950,-1.1059,-1.11954,-2.06614,0
64970,-1.09863,-1.12369,-2.07641,0
64990,-1.0912,-1.12746,-2.08801,0
65010,-1.08488,-1.13031,-2.09877,0
65030,-1.07699,-1.1338,-2.11044,0
65050,-1.06766,-1.13698,-2.1236,0
65070,-1.05719,-1.13989,-2.13788,0
65090,-1.04836,-1.14323,-2.15034,0
65110,-1.04004,-1.14733,-2.16193,0
65130,-1.03237,-1.1514,-2.1725,0
65150,-1.02494,-1.15528,-2.18307,0
65170,-1.01773,-1.15881,-2.19432,0
65190,-1.00991,-1.16227,-2.20595,0
65210,-1.00143,-1.16547,-2.21691,0
65230,-0.991851,-1.16925,-2.22787,0
65250,-0.981398,-1.1734,-2.23998,0
65270,-0.972208,-1.1773,-2.25143,0
65290,-0.963279,-1.18121,-2.26256,0
65310,-0.954831,-1.18479,-2.27241,0
65330,-0.948057,-1.18811,-2.28081,0
65350,-0.939473,-1.19127,-2.29181,0
65370,-0.929843,-1.19361,-2.30375,0
65390,-0.920578,-1.19649,-2.31574,0
65410,-0.911082,-1.19909,-2.32787,0
65430,-0.901858,-1.20183,-2.34017,0
65450,-0.891757,-1.20476,-2.35359,0
65470,-0.880985,-1.20711,-2.36709,0
65490,-0.871909,-1.20948,-2.37954,0
65510,-0.861792,-1.21168,-2.39329,0
65530,-0.852393,-1.21383,-2.40634,0
65550,-0.841894,-1.2154,-2.4213,0
65570,-0.832749,-1.21734,-2.43542,0
65590,-0.823024,-1.21918,-2.44928,0
65610,-0.810745,-1.22171,-2.46553,0
65630,-0.798573,-1.22422,-2.48192,0
65650,-0.790915,-1.22683,-2.49538,0
65670,-0.781465,-1.22907,-2.51063,0
65690,-0.765283,-1.23117,-2.53193,0
65710,-0.751478,-1.23272,-2.55004,0
65730,-0.739066,-1.23435,-2.56807,0
65750,-0.727522,-1.23542,-2.58526,0
65770,-0.715087,-1.23621,-2.6029,0
65790,-0.701954,-1.23662,-2.62147,0
65810,-0.687651,-1.23711,-2.64053,0
65830,-0.6738,-1.23759,-2.65851,0
65850,-0.659914,-1.23736,-2.67695,0
65870,-0.644749,-1.23619,-2.69738,0
65890,-0.630211,-1.23401,-2.71712,0
65910,-0.616604,-1.23183,-2.73546,0
65930,-0.60042,-1.22979,-2.75532,0
65950,-0.583915,-1.22705,-2.77358,0
65970,-0.568115,-1.22528,-2.79223,0
65990,-0.552052,-1.22301,-2.81199,0
66010,-0.539351,-1.21934,-2.82906,0
66030,-0.525647,-1.21507,-2.84678,0
66050,-0.5146,-1.21109,-2.86154,0
66070,-0.505974,-1.20682,-2.87369,0
66090,-0.498954,-1.20245,-2.88463,0
66100,-0.491355,-1.19804,-2.89617,0
66120,-0.487001,-1.19374,-2.90569,0
66140,-0.484263,-1.18925,-2.91409,0
66160,-0.478598,-1.18374,-2.92486,0
66180,-0.468974,-1.17743,-2.93979,0
66200,-0.461919,-1.17107,-2.95216,0
66220,-0.459619,-1.16633,-2.96052,0
66240,-0.457484,-1.16229,-2.96762,0
66260,-0.453034,-1.15876,-2.97615,0
66280,-0.449093,-1.15544,-2.98522,0
66300,-0.446723,-1.15185,-2.9936,0
66320,-0.446693,-1.14833,-2.99993,0
66340,-0.445499,-1.14512,-3.00688,0
66360,-0.440157,-1.14154,-3.01588,0
66380,-0.436398,-1.13805,-3.02218,0
66400,-0.43607,-1.13447,-3.02778,0
66420,-0.436468,-1.13041,-3.03324,0
66440,-0.436192,-1.12596,-3.03921,0
66460,-0.436951,-1.12171,-3.0423,0
66480,-0.439239,-1.11833,-3.04351,0
66500,-0.439605,-1.11451,-3.04647,0
66520,-0.440482,-1.11002,-3.0498,0
66540,-0.442645,-1.10536,-3.05273,0
66560,-0.445496,-1.10113,-3.05417,0
66580,-0.448878,-1.097,-3.05388,0
66600,-0.452708,-1.0932,-3.05294,0
66620,-0.455804,-1.08854,-3.05338,0
66640,-0.460919,-1.08421,-3.05247,0
