Timestamp, Electrode 1, Electrode 2, Electrode 3, Electrode 4, Electrode 5, Electrode 6, Electrode 7, Electrode 8, Marker
0,3,-17,-8,2,15,18,6,-3,0
5,-2,1,-2,-3,-5,4,6,-7,0
10,-3,-3,-1,1,-10,-10,-13,2,0
15,1,6,2,3,-1,5,8,-4,0
20,1,1,2,-6,-19,-12,19,12,0
25,-2,-3,-2,-4,5,-2,8,2,0
30,1,-3,-4,2,-1,6,12,1,0
35,-2,-2,1,2,0,-4,-11,-7,0
40,2,6,4,11,2,1,7,-3,0
45,-1,-3,-1,-1,-4,1,-2,1,0
50,-2,-2,-4,-22,-30,-9,-6,-3,0
55,2,-2,-1,6,32,12,-7,3,0
60,-3,1,-2,-2,-6,-6,-12,0,0
65,2,2,3,11,10,-13,6,4,0
70,-3,-2,1,3,1,-4,-8,-8,0
75,-8,-1,-3,-13,-29,-10,-16,-9,0
80,9,0,-2,-2,3,-3,-16,9,0
85,-4,-2,1,5,14,18,16,-7,0
90,3,-2,-1,0,7,16,0,3,0
95,-3,-2,-4,-1,-7,-23,-2,-8,0
100,-2,8,7,0,-7,-18,-27,7,0
105,-18,-18,-7,-2,-4,18,-17,-8,0
110,27,12,7,3,3,-4,12,10,0
115,-4,-10,-6,-3,2,11,20,-3,0
120,-6,0,-3,-4,-3,3,5,-2,0
125,-5,-1,-2,-1,0,-4,-6,0,0
130,-3,-1,-2,-1,0,1,-4,0,0
135,-1,-2,-1,-2,0,-2,0,-1,0
140,-1,-2,-2,-2,-2,0,-2,-2,0
145,1,-1,2,-1,1,-1,-12,0,0
150,-1,-2,-2,-1,-4,-9,-4,5,0
155,-5,-4,-6,-7,-14,-9,-4,1,0
160,2,3,4,1,1,-2,-4,-4,0
165,1,0,0,2,9,6,14,6,0
170,-2,-1,-7,-1,9,14,1,-7,0
175,-7,-2,0,-1,-3,-6,-4,-8,0
180,8,2,2,-3,-11,-9,0,13,0
185,0,-3,-1,2,5,4,-4,-3,0
190,-5,-1,1,-3,-11,-10,-6,-5,0
195,4,3,0,-4,4,12,23,6,0
200,-7,-2,-1,1,1,1,-3,-1,0
205,3,0,1,1,-9,2,18,-5,0
210,1,0,2,0,2,-1,-3,4,0
215,-9,-2,1,1,2,4,8,-1,0
220,5,4,1,2,6,4,1,-6,0
225,3,-4,-5,-1,-5,-2,-7,-2,0
230,0,1,0,-1,-2,-3,-8,-5,0
235,-2,0,0,-4,-9,-8,-8,-2,0
240,-4,-4,-3,3,32,28,6,-4,0
245,-4,-6,-3,-2,-11,-13,-3,0,0
250,1,3,1,-2,-7,-8,-2,-3,0
255,0,-1,-1,-1,-3,-2,-10,-3,0
260,4,3,-6,-7,-4,-1,3,5,0
265,-25,11,1,0,4,-3,-31,-20,0
270,-13,-12,-4,2,-1,-7,1,-7,0
275,17,-11,-5,-6,-16,-10,27,21,0
280,4,3,3,6,1,2,40,0,0
285,-12,-13,-10,-9,-9,-14,-11,23,0
290,3,6,2,1,-3,-3,-3,-16,0
295,-6,-1,-4,-3,2,7,8,3,0
300,-3,-6,-1,-7,-12,-6,-7,-10,0
305,4,-4,-4,-1,10,10,0,8,0
310,-5,0,1,1,-5,-7,-2,2,0
315,2,0,-1,-1,-13,-15,-8,-8,0
320,-5,-7,-6,-6,10,15,-16,3,0
325,5,0,2,12,28,9,7,0,0
330,1,9,3,-12,-18,-3,-20,1,0
335,-4,-17,-15,10,15,3,2,-6,0
340,-1,-4,6,0,-11,-8,-7,-1,0
345,-18,-3,0,-3,1,9,4,-12,0
350,38,16,6,-4,-7,-5,4,15,0
355,-6,3,4,5,20,9,-15,-6,0
360,-2,3,3,-1,-10,-9,1,-2,0
365,6,-4,-5,-11,-16,1,16,6,0
370,-8,-4,0,10,7,0,0,-1,0
375,1,8,2,-1,3,1,-14,-5,0
380,-3,-7,-6,4,0,-4,-7,2,0
385,9,9,5,-10,-26,-19,-3,-3,0
390,-6,-7,-8,0,4,15,6,-1,0
395,3,1,6,10,39,24,6,-1,0
400,-5,-3,-5,7,8,-1,2,3,0
405,3,3,-3,-8,-19,-13,-12,-5,0
410,1,-4,6,14,31,19,16,5,0
415,-13,-9,-7,-18,-22,-8,-6,-10,0
420,2,5,-1,-2,2,-4,-4,4,0
425,3,-2,-4,1,-3,-3,1,-8,0
430,-7,-9,-12,-12,-5,0,1,-3,0
435,7,13,5,0,-6,-4,-4,10,0
440,-2,-1,2,3,3,-1,9,-8,0
445,0,-2,1,1,-3,1,-6,-4,0
450,-3,0,-2,-3,-5,-15,-11,-1,0
455,-2,-4,1,0,1,14,17,-2,0
460,0,-1,1,-3,-8,-3,-2,2,0
465,0,-3,0,6,20,9,5,1,0
470,-5,-5,-3,-6,0,-3,6,-4,0
475,-3,-2,-1,-8,-17,-10,-9,-3,0
480,-3,-6,-7,-5,-16,-8,7,1,0
485,3,6,8,10,27,16,8,-1,0
490,-4,-3,-3,-4,-9,-12,-8,2,0
495,1,1,-2,-1,-4,-1,-1,-3,0
500,-5,-3,-4,-5,-21,-17,-9,-8,0
505,-3,-2,-10,-11,-3,1,0,-3,0
510,-6,4,7,2,-4,-2,-24,-12,0
515,-2,-11,-3,-1,-3,-10,-3,1,0
520,-2,1,5,7,13,18,6,-1,0
525,0,-6,-11,-8,-15,-14,-5,-2,0
530,5,-1,-1,-2,5,15,18,4,0
535,-4,0,-2,-8,-17,-13,-31,-3,0
540,2,-1,3,9,9,-15,-20,4,0
545,0,1,5,2,-2,14,14,-1,0
550,-7,-4,-2,-7,-23,-29,-7,-6,0
555,0,1,3,-3,-2,16,15,1,0
560,1,-3,-3,8,19,8,23,2,0
565,10,4,4,1,-5,-4,-18,9,0
570,-4,-3,-1,1,3,-11,-23,-11,0
575,-4,0,-4,-2,1,20,31,-17,0
580,-10,-7,-5,-8,-10,-28,-22,-3,0
585,-11,-3,0,-1,-7,-3,-27,-16,0
590,8,-1,-1,3,12,21,14,13,0
595,7,6,3,-10,-6,1,9,-12,0
600,-2,-6,-13,-2,11,-9,-37,-12,0
605,-10,-13,-2,-6,-13,-15,9,9,0
610,-3,-3,-3,11,20,27,40,0,0
615,-6,2,6,16,21,-14,-18,-1,0
620,-12,-4,6,-23,-47,-10,-4,-16,0
625,4,-5,-17,6,30,11,9,11,0
630,23,12,8,6,18,15,5,16,0
635,-3,-3,0,-3,-12,-21,0,-6,0
640,-2,-1,-5,-2,-8,11,1,1,0
645,-6,-5,-5,-16,-25,-9,15,-4,0
650,-3,-3,-1,0,5,-20,-45,9,0
655,1,1,-5,4,12,7,12,-3,0
660,4,2,5,0,-8,-9,-8,8,0
665,2,4,9,13,27,21,14,-13,0
670,-5,-9,-12,-13,-18,1,-2,1,0
675,-2,-3,0,-3,-8,-7,-6,-5,0
680,-2,1,-1,-2,7,-1,2,-15,0
685,10,5,3,-9,-17,-3,-28,41,0
690,1,3,3,6,6,4,38,-23,0
695,-3,-4,-1,3,0,2,0,19,0
700,9,4,0,-8,-3,6,17,13,0
705,5,3,4,13,16,14,-8,0,0
710,-13,-3,1,-5,-30,-23,-17,-14,0
715,-4,-7,-9,-3,7,12,-6,-7,0
720,-11,-4,-7,-6,6,6,14,-7,0
725,10,-2,7,-8,-13,-8,-8,14,0
730,-1,0,-1,8,10,-2,23,4,0
735,7,6,10,4,-4,4,-3,5,0
740,-14,-5,-1,-9,-24,13,12,-5,0
745,-5,2,-3,5,16,-5,18,-9,0
750,-6,-1,4,-3,-7,-7,-6,-8,0
755,7,-2,-8,-13,-25,-16,-14,1,0
760,8,3,6,12,-10,-17,11,8,0
765,-10,-7,-6,-7,-6,5,-5,-21,0
770,-10,3,9,20,56,15,-4,6,0
775,17,-1,-6,-5,-53,-40,8,8,0
780,-2,-7,-15,-10,27,26,-16,-9,0
785,-5,-3,-4,-5,-16,-4,9,-8,0
790,2,2,-8,-21,-26,10,0,-5,0
795,-2,3,9,26,37,-10,-24,13,0
800,-17,-2,2,4,-7,-24,5,-9,0
805,27,5,0,-1,-6,-3,13,14,0
810,-7,-6,-7,-10,-12,0,-2,-5,0
815,-3,1,-1,-6,-3,5,1,3,0
820,6,0,4,7,14,4,-3,4,0
825,-16,0,0,-6,-21,-13,-8,-17,0
830,1,-2,-1,1,3,2,10,1,0
835,5,3,1,5,30,30,6,2,0
840,-2,0,-1,-1,-11,-3,-3,-1,0
845,-5,-3,-4,6,33,-2,4,-2,0
850,1,2,1,-1,-11,9,3,-7,0
855,-21,-16,-17,-21,-7,-2,3,-10,0
860,7,1,0,-13,-36,-21,-11,4,0
865,-1,7,3,7,33,26,10,-3,0
870,7,-1,2,-1,-4,-3,-3,2,0
875,-12,1,-1,-4,-20,-23,0,-11,0
880,-3,-2,-2,3,21,20,-19,-11,0
885,-5,-7,-1,-7,-42,-43,-30,-14,0
890,-3,-1,-3,-6,-1,-11,7,7,0
895,3,3,8,12,28,16,2,1,0
900,0,0,0,0,2,8,3,-1,0
905,-3,1,1,9,11,-8,-1,1,0
910,-3,-4,-12,-2,26,33,5,0,0
915,-1,-6,1,11,18,-8,2,-1,0
920,9,0,4,3,-16,-1,26,9,0
925,-15,-3,-11,-14,-10,-8,-38,-9,0
930,-2,3,8,1,-27,-20,-11,-7,0
935,5,2,-4,-6,10,13,16,5,0
940,-3,1,0,-1,12,13,3,6,0
945,0,-7,2,6,1,2,11,-6,0
950,0,-8,-8,-18,-29,-11,-1,-1,0
955,-9,1,-2,-7,-11,-13,-16,-17,0
960,-3,-4,0,-3,-7,-14,-5,11,0
965,2,-2,2,-11,-20,18,-42,13,0
970,15,12,14,16,24,-1,3,-11,0
975,3,-1,2,0,1,1,4,8,0
980,2,-4,-5,11,6,5,1,17,0
985,-14,-7,-8,-14,-15,0,5,-30,0
990,-19,-22,-11,4,22,15,13,14,0
995,-8,-9,2,-1,-15,-7,-3,-12,0
1000,25,37,12,-2,8,-1,-15,-2,0
1005,-3,-6,0,1,-21,-5,-5,-11,0
1010,6,-3,-10,-9,-30,-50,-36,9,0
1015,6,3,1,13,55,96,32,12,0
1020,-15,-17,-9,-7,-7,-36,-17,-21,0
1025,8,13,9,5,-8,7,48,-2,0
1030,-1,-5,-6,-8,-14,-22,-11,4,0
1035,-11,-7,-4,-7,-14,8,12,6,0
1040,4,5,1,-9,-12,4,2,-6,0
1045,7,8,5,6,10,-7,-22,17,0
1050,-14,-12,-10,-5,-4,-13,10,-28,0
1055,4,1,4,14,25,13,20,6,0
1060,-1,-6,3,11,17,-5,-16,10,0
1065,-2,-2,-5,-5,5,-8,25,6,0
1070,10,8,7,-2,-33,2,-2,15,0
1075,6,1,-5,-20,-38,-27,-35,-13,0
1080,-8,-5,-2,-15,-5,25,27,-29,0
1085,-12,-17,-6,17,-1,-35,10,38,0
1090,-17,-12,-10,-12,-2,9,-11,-23,0
1095,20,30,18,9,-18,-40,-54,3,0
1100,-6,-5,-8,-11,-5,22,102,-22,0
1105,-8,-15,-18,-14,-7,-74,-80,37,0
1110,8,17,13,13,15,23,54,10,0
1115,0,-9,-6,-2,-12,-11,39,1,0
1120,-15,-9,-3,-4,-16,-4,29,-5,0
1125,3,9,6,6,30,1,-76,-30,0
1130,6,-8,-2,3,12,-18,-12,12,0
1135,-5,-4,-4,-6,-9,-6,-16,-1,0
1140,-10,-7,-6,-3,4,1,-29,-12,0
1145,-2,2,3,1,-6,20,48,-3,0
1150,8,11,8,-6,-14,4,-15,-9,0
1155,-6,-8,-8,6,22,9,9,28,0
1160,-7,-13,-10,3,32,1,-38,-3,0
1165,11,12,0,-5,15,37,-28,-11,0
1170,15,27,14,12,11,15,53,5,0
1175,-15,-14,-6,-5,-17,-26,-24,-15,0
1180,-4,-15,-6,5,10,3,-18,2,0
1185,-4,-7,-5,-6,-9,13,35,4,0
1190,11,29,13,3,12,28,6,-25,0
1195,-34,6,0,-6,-6,-28,-79,-12,0
1200,35,-16,3,9,-1,3,21,20,0
1205,3,-12,-24,-17,-7,15,26,8,0
1210,-13,-9,-9,-8,-11,-10,-25,-12,0
1215,3,21,11,-1,-5,4,44,-9,0
1220,21,44,16,4,9,15,18,26,0
1225,5,25,4,-1,-1,-15,16,13,0
1230,-3,-43,-13,4,9,0,7,-10,0
1235,-4,6,-2,-12,4,34,86,6,0
1240,-7,-13,-5,5,-11,-26,32,23,0
1245,1,6,7,4,3,-3,-8,-2,0
1250,-1,9,-4,-8,4,28,65,0,0
1255,-11,-21,3,11,-4,-20,-22,-9,0
1260,-3,43,12,1,-6,-1,-1,-13,0
1265,-12,-56,-8,11,6,7,16,-12,0
1270,-32,29,0,-21,-6,-2,-37,15,0
1275,71,-30,-22,-6,-4,-2,8,10,0
1280,-29,-26,-3,4,3,6,-25,-17,0
1285,-21,7,-5,-10,-10,-7,2,-38,0
1290,-20,-5,-9,-1,3,1,-21,-15,0
1295,-2,4,-3,-3,2,6,54,13,0
1300,8,29,4,-1,-10,-30,-124,23,0
1305,14,11,15,5,1,27,75,-43,0
1310,7,-12,-3,-5,-14,-3,70,17,0
1315,-12,-17,-21,-14,-8,-28,-83,25,0
1320,24,21,16,15,8,2,2,-3,0
1325,-6,8,9,6,7,15,-37,14,0
1330,6,-7,2,10,7,-13,-37,-13,0
1335,-8,-13,-4,-7,-22,-4,-13,-33,0
1340,-28,-11,-12,-2,33,16,8,-9,0
1345,19,4,-2,-2,-8,-20,-33,15,0
1350,2,3,3,1,-7,-23,-42,-16,0
1355,-11,18,6,2,19,21,-23,-8,0
1360,15,-17,-6,-12,-35,-9,15,23,0
1365,-4,6,-5,-8,11,5,32,1,0
1370,6,-32,0,17,8,1,10,3,0
1375,-2,27,6,-8,-5,1,14,-4,0
1380,-5,1,-12,-13,-15,-17,-51,6,0
1385,-12,-2,17,13,18,16,25,-1,0
1390,38,18,-3,-12,-2,5,42,9,0
1395,-20,-23,-26,-17,-28,7,90,-6,0
1400,22,-1,10,6,10,5,6,29,0
1405,-14,14,13,1,-5,3,13,-29,0
1410,-19,-23,-10,-3,1,7,-18,-2,0
1415,17,30,8,1,7,-3,6,4,0
1420,6,4,-3,-5,-1,15,35,18,0
1425,1,1,12,9,7,7,-7,-9,0
1430,-12,-22,-16,-12,-13,-9,-9,-13,0
1435,-1,12,29,32,16,-4,-22,5,0
1440,-18,-18,-19,-1,7,5,-2,-19,0
1445,-3,-7,-21,-27,-26,-13,-9,15,0
1450,2,12,0,-5,11,-2,7,-1,0
1455,-16,-12,-9,-5,-17,-28,-70,-33,0
1460,21,12,7,8,24,0,17,14,0
1465,13,10,13,20,5,-4,14,11,0
1470,-6,8,-7,-15,-14,29,112,-23,0
1475,9,-20,-21,-18,-17,-57,-17,92,0
1480,37,55,27,6,-3,16,71,-12,0
1485,-16,-38,-15,-4,-2,-10,-7,33,0
1490,40,34,14,7,0,5,-20,-41,0
1495,-37,-27,-9,-1,5,22,7,-23,0
1500,-26,-43,-11,-15,-8,2,28,-40,0
1505,2,-3,-13,-10,-10,-29,-50,74,0
1510,-29,-6,1,10,1,-18,-62,11,0
1515,26,16,14,6,13,34,103,-4,0
1520,-33,-16,-20,-22,-29,-42,-29,10,0
1525,15,12,12,13,22,9,-25,-36,0
1530,-6,-14,4,4,0,2,-4,-15,0
1535,-1,10,1,4,1,0,2,17,0
1540,-9,15,11,4,-3,4,9,-38,0
1545,39,-9,-14,-11,2,42,121,-8,0
1550,-4,9,-24,-21,-25,-61,-51,66,0
1555,28,6,26,7,7,47,99,-10,0
1560,-22,-21,-17,-12,-21,-54,-17,112,0
1565,-18,-13,1,7,-4,9,83,-47,0
1570,7,-7,3,11,32,0,-27,-12,0
1575,-16,-21,-6,-6,2,14,29,-30,0
1580,-23,-7,-3,3,-3,0,-41,-25,0
1585,-1,37,9,-7,0,-4,-46,12,0
1590,23,-15,-21,-10,-7,12,9,-8,0
1595,14,13,-3,-2,0,-10,-60,12,0
1600,-18,-12,0,2,6,0,-34,-21,0
1605,16,39,11,8,6,9,-21,-9,0
1610,-13,-11,7,8,2,15,18,-11,0
1615,4,10,-4,-12,-11,-16,-59,-3,0
1620,10,14,10,2,8,41,71,-40,0
1625,-16,-37,-27,-13,-13,-29,12,63,0
1630,-3,19,18,15,7,-3,40,28,0
1635,7,-7,1,10,-2,3,90,-18,0
1640,-28,-31,-22,-15,-14,-31,-116,-15,0
1645,-23,-19,-2,-2,-11,-15,12,-34,0
1650,17,2,8,3,12,21,11,6,0
1655,-12,6,6,8,4,-5,-28,-8,0
1660,12,21,9,5,9,14,-1,-22,0
1665,13,-1,0,5,1,-6,-13,3,0
1670,-30,-22,-15,1,-7,-6,-25,1,0
1675,-11,-3,8,-19,-8,-2,-25,-8,0
1680,16,8,14,1,0,6,4,-1,0
1685,14,7,6,0,3,0,-35,-18,0
1690,-7,15,10,4,-3,-2,-10,-10,0
1695,-20,-26,-16,-1,4,1,-25,-9,0
1700,10,16,-2,-2,1,5,18,12,0
1705,10,-3,21,7,4,-6,-10,-6,0
1710,13,35,10,-3,-6,1,21,-15,0
1715,-23,-7,-12,-10,-10,-26,-26,-6,0
1720,16,4,-5,-1,7,-3,6,24,0
1725,-4,10,-5,-3,-1,-2,-24,-26,0
1730,9,-5,17,13,5,12,30,4,0
1735,4,-12,-7,-4,-8,1,1,25,0
1740,12,9,13,7,10,9,15,-3,0
1745,-26,-5,-4,-1,-14,-7,-4,6,0
1750,-6,-29,-18,-20,-10,-5,-15,-8,0
1755,-4,7,4,6,2,1,-20,-18,0
1760,9,13,6,11,5,-4,-17,1,0
1765,-26,-49,-27,-16,-1,8,26,-7,0
1770,-7,7,-3,-5,-11,-17,-26,-6,0
1775,18,16,10,6,7,8,21,12,0
1780,-19,11,-5,-4,1,-1,-13,-9,0
1785,-4,-25,-24,-3,2,5,12,-3,0
1790,-14,-24,-5,-4,-9,-8,-29,-5,0
1795,16,27,22,8,11,8,8,2,0
1800,18,-3,0,11,1,0,7,9,0
1805,-3,23,14,2,2,-1,0,-2,0
1810,13,15,10,9,6,3,1,-2,0
1815,-8,-2,-8,4,4,-3,-14,-17,0
1820,-1,-19,-10,-6,-15,-2,3,6,0
1825,15,22,14,-7,2,0,-9,2,0
1830,-11,-15,-20,-3,-1,-5,3,4,0
1835,-13,-18,-9,-13,5,-1,-5,-5,0
1840,5,15,16,18,-2,6,15,14,0
1845,-6,-22,-10,-22,-16,2,1,0,0
1850,-3,4,-11,-7,4,1,10,7,0
1855,5,-4,3,1,0,4,6,12,0
1860,-5,-11,-1,5,-2,6,0,-11,0
1865,-10,5,6,-7,-3,0,-8,-12,0
1870,2,8,8,-2,-2,0,5,-10,0
1875,-14,-10,-6,-2,-9,-2,2,0,0
1880,0,-6,-5,3,12,-27,-31,4,0
1885,17,8,8,17,-4,5,7,13,0
1890,0,1,-5,-13,3,20,12,-5,0
1895,4,-2,-5,-8,1,-9,-21,-5,0
1900,-10,-7,4,6,3,7,10,-3,0
1905,0,1,-6,8,11,1,6,-8,0
1910,-11,-30,-27,3,2,-4,8,0,0
1915,-1,-5,-20,-22,-23,0,20,2,0
1920,1,-5,-8,-29,-18,12,25,5,0
1925,5,15,13,19,12,-23,-48,1,0
1930,8,35,14,6,5,8,6,3,0
1935,-9,-30,6,6,2,-1,3,-18,0
1940,-6,11,-3,-14,-6,9,11,-1,0
1945,9,2,2,3,4,-2,10,-8,0
1950,-4,-8,2,9,-8,-8,-8,28,0
1955,9,13,-1,-8,-7,-7,-6,-8,0
1960,-10,-23,-6,-6,4,8,4,2,0
1965,-15,-4,-3,-6,-12,-6,8,-13,0
1970,9,-3,15,10,8,3,8,14,0
1975,-1,3,5,18,11,7,22,9,0
1980,2,-8,-2,-5,-6,-14,-7,5,0
1985,-6,-8,-31,-35,-40,7,15,7,0
1990,-5,-2,-6,-11,-5,-13,-25,-17,0
1995,1,8,4,-6,11,8,-8,1,0
2000,10,8,7,8,7,-7,7,-11,0
2005,3,6,7,15,2,4,-6,5,0
2010,-5,0,3,-6,10,-3,-11,-9,0
2015,-2,2,-3,4,-5,-7,-4,-4,0
2020,-5,-11,-12,12,-1,2,-11,1,0
2025,1,-7,11,-11,2,-3,-27,-1,0
2030,-8,-10,-13,-11,-17,-13,4,0,0
2035,3,16,2,5,19,6,-8,-10,0
2040,10,3,2,-1,-10,-1,0,21,0
2045,-1,-6,-10,0,8,14,-2,-13,0
2050,-8,-3,0,1,-5,-5,-13,-3,0
2055,-3,-2,-5,-6,-3,-1,-6,-1,0
2060,-6,-4,-5,-4,-8,-6,-5,-3,0
2065,1,4,1,4,16,12,-6,3,0
2070,1,0,6,4,-1,0,0,-5,0
2075,-1,-8,-6,-6,-17,-7,-1,1,0
2080,-2,1,4,-16,14,21,-1,0,0
2085,3,1,-6,-3,-24,-29,-3,4,0
2090,-7,-15,-19,-21,0,11,16,-3,0
2095,-7,-23,-3,-4,3,-2,-12,-7,0
2100,8,29,-2,-11,-15,-3,6,2,0
2105,-3,-7,2,22,21,4,4,-2,0
2110,6,23,9,1,-11,-11,-1,-12,0
2115,-3,-19,9,10,-13,-3,22,19,0
2120,-5,-16,9,19,30,4,-31,-18,0
2125,-9,-2,-19,-22,-22,2,29,-2,0
2130,-14,-21,-14,-31,-26,-6,-6,-7,0
2135,6,8,-7,11,23,1,-9,1,0
2140,-8,-5,-2,-9,-10,-4,7,4,0
2145,3,6,8,24,4,-8,1,7,0
2150,-2,-5,7,4,6,6,4,-8,0
2155,-7,2,-5,-6,-20,-16,-12,-8,0
2160,2,0,-10,-9,-11,-4,-10,18,0
2165,21,9,21,4,6,6,-2,4,0
2170,-9,-10,-6,7,8,17,17,-5,0
2175,1,3,7,8,9,-2,-30,-6,0
2180,3,2,0,2,-7,-11,10,-11,0
2185,-12,-10,-11,-20,-2,7,2,-2,0
2190,8,12,2,-4,-6,-9,-37,0,0
2195,-3,-7,-5,13,10,8,65,18,0
2200,-12,-18,-13,-3,-12,10,-16,-10,0
2205,2,7,3,7,31,-9,-63,-7,0
2210,2,2,13,-11,-4,-1,-15,0,0
2215,3,1,-4,-4,-5,8,7,-1,0
2220,-2,-9,-9,-3,-33,-7,0,-3,0
2225,-3,6,1,1,-9,-4,-12,-10,0
2230,-3,-2,10,5,-19,2,10,8,0
2235,3,16,7,5,4,-5,-56,-16,0
2240,2,-3,2,1,16,-6,13,-1,0
2245,-5,-7,-15,-8,-10,4,2,8,0
2250,1,11,-3,-3,-11,-19,-9,-10,0
2255,4,1,-6,-20,16,22,5,2,0
2260,-2,-1,0,3,-1,-13,-20,-1,0
2265,-5,-2,3,22,13,1,40,-4,0
2270,-8,-11,4,-9,-5,-4,-28,-3,0
2275,3,3,-1,-3,-3,2,-3,0,0
2280,0,9,-5,4,4,9,8,3,0
2285,-4,-8,-4,1,-7,-16,-24,-11,0
2290,-2,-5,-13,-25,3,16,38,10,0
2295,1,4,6,6,-25,-13,-13,-6,0
2300,-1,-7,-6,-8,20,14,37,11,0
2305,0,2,1,0,-8,3,10,5,0
2310,2,7,12,29,10,-4,-15,-11,0
2315,1,-9,-8,10,10,-4,-12,-1,0
2320,-3,-5,-1,7,-3,-13,-12,-1,0
2325,-2,-4,-19,-47,-23,12,31,5,0
2330,-2,-4,-5,8,15,2,-9,1,0
2335,0,6,6,-3,-2,-24,-15,-1,0
2340,5,6,15,24,19,5,1,-7,0
2345,-6,-23,-4,4,5,1,-14,-7,0
2350,1,7,4,-2,-3,-5,-7,4,0
2355,5,6,-4,1,-8,3,10,-4,0
2360,-3,-12,5,-15,-9,9,-6,14,0
2365,1,5,-13,-18,1,0,-4,0,0
2370,-8,-16,-8,6,-1,-17,-9,-5,0
2375,-1,4,-1,-2,7,13,-22,-5,0
2380,4,7,-1,1,9,4,3,-4,0
2385,2,5,22,24,6,1,7,4,0
2390,4,4,2,21,30,12,-18,-2,0
2395,-7,-5,-2,-14,-18,-20,-32,-1,0
2400,-6,-8,-15,-25,-21,3,3,1,0
2405,0,8,9,5,-33,-14,-16,-6,0
2410,1,-3,-8,4,31,7,-2,0,0
2415,-1,9,15,10,-52,-8,3,-4,0
2420,0,-5,-8,7,62,17,-19,6,0
2425,2,6,6,1,-7,-11,-28,-8,0
2430,-1,1,-6,0,-11,-8,16,2,0
2435,-3,-5,-1,-3,-7,-1,0,0,0
2440,-1,3,1,-1,-26,-13,-12,-13,0
2445,-4,-6,-11,-11,13,15,2,2,0
2450,-1,1,3,1,-4,-6,-9,-3,0
2455,-4,-4,-11,-6,20,9,13,0,0
2460,-4,-3,-3,-4,-21,-20,-6,-9,0
2465,-5,3,0,1,20,-2,-24,-8,0
2470,9,1,-1,-7,-16,3,-7,8,0
2475,-3,-2,-8,-11,-2,-4,12,2,0
2480,-1,2,0,4,-2,-2,-9,-7,0
2485,2,0,2,4,4,7,-17,-1,0
2490,-4,1,-1,-4,-19,-10,-2,-3,0
2495,-2,-3,-6,-11,2,10,-11,-2,0
2500,-2,4,5,10,9,-3,14,-18,0
2505,-38,-12,-1,-4,14,-7,-44,13,0
2510,73,13,1,1,-20,-15,12,16,0
2515,2,-18,-6,-4,-8,-4,2,-2,0
2520,-14,8,9,1,2,15,-7,-27,0
2525,-7,-2,-9,-10,-20,-7,38,-8,0
2530,-26,2,3,2,-2,-8,-1,-4,0
2535,-2,8,8,13,48,48,14,6,0
2540,21,-3,-1,1,6,4,13,9,0
2545,-7,-5,-3,6,16,2,7,3,0
2550,16,12,6,-6,-5,25,-8,0,0
2555,8,-2,-6,-2,6,-11,14,4,0
2560,-17,0,-3,-6,-12,0,-8,-2,0
2565,1,-16,-12,-4,-8,8,29,8,0
2570,-20,-7,-7,-1,0,-12,56,-13,0
2575,-17,-1,-3,-5,-2,0,-37,-1,0
2580,-14,6,12,0,-2,-2,22,-3,0
2585,41,-1,-11,-2,-12,-13,18,27,0
2590,-15,-10,-6,-1,9,12,12,-2,0
2595,5,1,-3,0,-3,-15,-20,-6,0
2600,4,3,2,-7,-12,-7,-3,6,0
2605,-5,2,3,-3,-27,-30,-11,-12,0
2610,-7,0,2,9,36,17,-17,0,0
2615,-5,-6,-9,-11,-48,-32,0,2,0
2620,-6,-6,-1,22,67,40,-1,-3,0
2625,10,8,4,-7,-24,-17,7,-3,0
2630,-6,-12,-4,5,5,2,-37,0,0
2635,-1,3,1,-8,-20,-20,-6,-9,0
2640,0,-2,-7,-9,-14,1,0,-3,0
2645,2,-11,-4,0,16,15,-4,-5,0
2650,-13,1,4,-1,-5,-12,-4,-8,0
2655,-3,0,-2,-2,9,9,8,-1,0
2660,8,-5,-1,-7,-18,-10,-9,9,0
2665,-1,7,6,7,21,7,-4,-2,0
2670,-2,1,-2,-6,-15,-9,-16,-4,0
2675,1,-3,-2,-4,-6,-7,0,-2,0
2680,3,1,-2,2,19,18,-4,4,0
2685,-4,4,3,1,9,14,26,-5,0
2690,-19,4,4,-7,-36,-32,-5,-17,0
2695,18,-15,-5,16,58,51,30,17,0
2700,1,-5,-6,-7,-3,-11,-60,5,0
2705,-7,0,2,1,3,14,8,2,0
2710,4,-4,-5,-5,-11,-11,-4,-5,0
2715,-19,-1,0,-3,-4,-10,-40,-12,0
2720,1,-4,-8,-10,-28,-4,8,-7,0
2725,6,1,1,2,9,-2,-4,5,0
2730,-9,4,-3,-3,12,15,-8,5,0
2735,6,4,5,-7,-20,-9,7,-5,0
2740,3,-3,-2,2,1,-3,18,12,0
2745,-2,3,2,-1,-9,-5,-17,-8,0
2750,5,0,1,3,6,4,10,1,0
2755,-1,3,0,-3,10,7,-11,-1,0
2760,-1,-3,0,-3,-33,-38,9,6,0
2765,-9,1,4,12,65,59,16,-4,0
2770,4,-5,-5,-7,-20,-23,-10,1,0
2775,0,2,3,0,-7,1,-6,-8,0
2780,-8,-3,-6,-7,-9,-11,-10,5,0
2785,1,3,2,-8,-28,-16,-13,-15,0
2790,1,-7,-5,6,16,12,3,6,0
2795,-6,-6,-3,-1,-4,-4,-1,-2,0
2800,0,2,-1,-5,-13,-4,3,-10,0
2805,2,-2,0,-3,-5,-9,-7,-3,0
2810,2,3,0,0,8,7,-3,0,0
2815,-3,3,2,1,-6,-12,11,-1,0
2820,0,-2,-3,-2,3,4,-2,-1,0
2825,0,-4,-3,0,-2,-8,-1,3,0
2830,0,-5,-1,3,3,4,-3,1,0
2835,1,4,-2,-4,-10,-4,-19,-7,0
2840,3,-3,1,3,18,9,7,7,0
2845,-1,-1,-1,-1,3,1,-1,1,0
2850,-2,-1,-1,1,18,26,5,-6,0
2855,2,0,-2,-8,-15,-9,-3,0,0
2860,-2,-2,3,6,6,-3,-5,-5,0
2865,-1,-4,-2,1,-6,-10,-2,5,0
2870,-5,8,8,-2,-3,-3,-8,-9,0
2875,4,4,-2,2,6,5,2,4,0
2880,-3,-6,-4,-6,-9,3,4,-3,0
2885,0,0,-6,-7,-11,-6,-1,-5,0
2890,-7,-3,-1,-1,-7,-13,-29,-12,0
2895,-1,0,2,5,13,4,7,1,0
2900,0,2,1,-2,-6,-4,1,3,0
2905,-4,1,-2,-3,-5,-13,-6,3,0
2910,3,-3,-3,1,1,1,13,1,0
2915,-3,-1,-2,-2,-2,-1,4,-4,0
2920,2,-1,-1,-1,-10,-7,1,-3,0
2925,3,0,1,2,11,4,-3,3,0
2930,-1,-2,-1,-3,-7,-9,1,4,0
2935,1,-1,-1,1,-2,1,23,2,0
2940,-5,-3,-4,-5,-13,-15,-4,11,0
2945,1,3,1,-2,-13,1,8,-11,0
2950,-6,-5,-2,1,23,10,-48,-9,0
2955,0,0,2,3,7,3,14,-5,0
2960,-5,-1,-1,-1,-12,-17,-12,-6,0
2965,-6,-1,-1,-6,-5,1,-8,-27,0
2970,9,-5,-5,0,6,-15,1,31,0
2975,-4,-6,-3,-1,-9,-7,3,-1,0
2980,-7,-2,-2,-2,7,9,-18,-8,0
2985,1,2,0,-3,-12,-12,1,-1,0
2990,0,2,2,-2,-14,-1,22,-5,0
2995,-6,-1,-4,-7,-22,-17,-11,3,0
3000,6,6,5,13,43,34,25,10,0
3005,-4,-5,-1,6,33,23,3,6,0
3010,-1,-4,-7,-18,-40,-21,-5,-8,0
3015,6,4,7,20,58,50,15,15,0
3020,-1,-1,-2,-7,-15,-7,-10,-5,0
3025,1,-1,-1,-6,-9,-4,-13,1,0
3030,-5,-3,1,4,12,11,8,-3,0
3035,0,0,-4,-13,-19,-14,-9,-2,0
3040,2,-6,-4,-3,-5,-1,-4,-3,0
3045,-1,0,1,3,-8,-7,-2,3,0
3050,0,0,-3,-1,13,9,14,-4,0
3055,-4,-1,0,-2,-8,-7,-7,1,0
3060,1,1,-1,0,-2,2,4,2,0
3065,0,7,2,1,-12,-10,-4,1,0
3070,-3,-14,-4,1,3,-2,5,0,0
3075,0,0,-1,1,8,18,-2,-3,0
3080,3,-1,-1,-4,-5,-12,-10,3,0
3085,1,0,-3,-8,-18,-3,-9,-6,0
3090,-1,5,5,9,14,6,9,6,0
3095,-2,-1,-2,2,36,33,-23,-9,0
3100,8,3,2,3,-15,-13,7,4,0
3105,-1,-2,0,0,-4,-4,12,0,0
3110,-3,2,-2,-8,-12,2,3,-7,0
3115,2,-4,0,5,-3,-22,-9,12,0
3120,-4,3,0,-2,-5,7,0,-18,0
3125,0,-2,-5,-9,-13,-7,-23,-1,0
3130,-1,-5,-6,1,20,12,4,8,0
3135,-2,4,8,9,12,16,21,-7,0
3140,-4,-1,-1,-4,-5,-7,-2,-4,0
3145,-4,-5,-3,-3,-7,-16,-44,-4,0
3150,0,-1,-2,-5,-18,-4,-4,-4,0
3155,4,4,0,-6,-17,-12,-5,-7,0
3160,-2,-2,-4,-4,17,28,50,-30,0
3165,-11,-15,-11,1,-15,-42,-11,68,0
3170,0,7,5,3,11,5,14,-11,0
3175,0,-3,0,-3,-28,-20,2,-5,0
3180,2,5,5,10,31,13,15,0,0
3185,-1,5,2,-4,-2,6,4,-23,0
3190,1,-9,-5,2,5,7,-1,3,0
3195,-6,1,0,-5,-15,-18,9,7,0
3200,-2,-5,-3,-5,-7,-12,-36,2,0
3205,2,0,-3,-5,-4,10,13,-4,0
3210,-9,-4,-2,0,5,-12,-49,-6,0
3215,1,-1,3,6,6,0,18,-10,0
3220,-2,-5,-3,-2,-11,-13,-11,13,0
3225,0,-2,1,5,19,14,2,-7,0
3230,2,4,2,-12,-43,-22,7,-6,0
3235,-1,-5,-6,-3,7,13,-6,0,0
3240,0,1,2,5,3,-12,-3,5,0
3245,-4,3,0,-3,-9,-4,7,-13,0
3250,4,1,-1,0,-3,-7,4,5,0
3255,-3,-1,-2,-1,0,-7,-3,4,0
3260,-3,-4,-3,-4,-5,1,-5,5,0
3265,0,2,4,0,7,11,7,-13,0
3270,-1,-2,-2,0,5,2,7,3,0
3275,-2,-2,-1,-1,14,8,-9,-2,0
3280,-1,-1,0,-2,-5,2,-6,-1,0
3285,1,-5,-1,-3,-3,-3,2,2,0
3290,-4,1,-2,0,8,8,-2,-3,0
3295,-4,-2,-4,-11,-22,-13,-5,-3,0
3300,2,1,2,10,7,-7,2,5,0
3305,2,1,3,4,-5,-4,0,0,0
3310,1,-1,-6,-6,2,4,3,0,0
3315,7,-6,-2,-1,-8,1,3,6,0
3320,-2,2,-3,-5,-6,-7,-11,-6,0
3325,-2,0,0,4,10,6,1,-6,0
3330,-1,-3,2,-4,-18,-12,6,-3,0
3335,-4,0,-2,-4,5,-1,-5,-3,0
3340,2,-1,-2,-2,-15,-9,-6,1,0
3345,5,2,-1,6,17,23,8,4,0
3350,-1,1,3,4,-1,-11,4,-2,0
3355,-1,-1,-3,-5,-6,-5,-7,0,0
3360,-4,-4,-4,-4,-7,-5,0,2,0
3365,-1,-3,0,-5,-13,-11,0,-3,0
3370,-1,-1,-5,-2,-2,1,-5,2,0
3375,-2,1,0,-2,0,0,0,-2,0
3380,0,-2,-3,0,-3,-1,0,0,0
3385,-2,-1,-2,-6,-5,-5,-9,-5,0
3390,5,0,6,7,4,3,11,8,0
3395,-1,0,0,6,16,0,4,1,0
3400,-4,-3,0,-4,0,6,-8,-3,0
3405,1,-3,-3,-3,-7,-9,2,-3,0
3410,-2,0,-8,-6,-6,1,-3,-2,0
3415,-5,-1,-1,-9,-15,-9,-3,-5,0
3420,-1,-6,2,-3,-9,-3,-2,1,0
3425,-4,4,1,8,22,9,4,-4,0
3430,6,-4,3,5,1,3,1,6,0
3435,-1,1,1,1,-2,-1,3,-2,0
3440,-2,-2,-5,-6,-3,3,-2,0,0
3445,-3,-2,-2,-4,-1,-5,-1,-2,0
3450,-4,0,-3,-4,-2,5,-3,-4,0
3455,-1,-3,-3,-3,-10,-8,-5,-1,0
3460,0,6,12,10,15,9,2,0,0
3465,2,-4,-1,-7,-16,-6,-2,2,0
3470,-4,-4,-9,-3,9,5,5,1,0
3475,-2,1,4,2,2,1,-2,0,0
3480,-1,0,-5,-3,-3,0,-2,-4,0
3485,0,-2,0,-1,2,0,1,2,0
3490,-1,2,2,1,-4,-2,-2,-5,0
3495,-3,-7,-8,-7,-8,-6,-1,-3,0
3500,-3,9,6,1,-2,-8,-7,-1,0
3505,3,-6,-5,2,13,11,9,5,0
3510,-3,-2,-1,-5,3,3,-11,-5,0
3515,-1,-2,1,6,-9,-11,2,3,0
3520,2,4,-3,-4,-1,1,-4,0,0
3525,1,2,3,2,-4,-5,-6,-3,0
3530,-1,2,2,4,-3,-6,-2,-2,0
3535,-1,-3,-1,-4,0,2,-3,-1,0
3540,-6,-5,-2,-5,0,1,-8,-5,0
3545,7,2,0,3,2,-2,-3,10,0
3550,-3,-4,-6,-5,-3,-1,1,-3,0
3555,-1,3,7,-3,-8,-8,-6,-5,0
3560,-1,-3,-1,2,-4,-2,-2,-2,0
3565,-4,0,1,2,12,1,-1,-3,0
3570,-1,3,5,-1,-13,-13,-6,-1,0
3575,1,-1,-2,3,5,5,-2,1,0
3580,-1,0,0,-1,-11,-16,-2,-4,0
3585,-2,-5,-2,-5,4,15,1,-2,0
3590,-1,-3,-14,-13,-19,-9,-4,1,0
3595,-3,-3,-5,-2,7,-3,5,-2,0
3600,0,-2,5,3,8,11,-4,-1,0
3605,-3,2,1,4,-1,-7,-1,-4,0
3610,-1,-2,5,-2,-7,-3,-4,-2,0
3615,0,-1,-2,0,9,4,-4,-2,0
3620,1,-3,-8,-2,4,2,6,1,0
3625,-1,0,1,-3,-8,-12,-3,-1,0
3630,-1,2,3,1,3,5,2,3,0
3635,-2,-1,0,0,1,0,0,0,0
3640,-2,-5,-3,-3,2,1,-3,-2,0
3645,-2,-3,-3,-3,-9,-10,-3,-4,0
3650,-1,2,3,1,5,2,-1,-3,0
3655,2,-1,-3,-3,-13,-7,-2,0,0
3660,-3,-2,-3,1,19,11,3,0,0
3665,-1,0,-1,0,0,3,0,-1,0
3670,0,1,5,5,1,-4,-3,-1,0
3675,0,2,-1,3,0,-3,-2,2,0
3680,-3,-3,-8,-9,-12,0,2,-4,0
3685,-3,-4,-10,-10,-7,-5,0,-2,0
3690,0,-1,1,2,18,17,4,-2,0
3695,1,0,1,1,2,-4,2,0,0
3700,0,1,3,0,1,-1,-1,0,0
3705,-2,2,2,4,-1,-3,-2,-2,0
3710,-2,-4,-4,-3,-6,-9,0,-1,0
3715,-3,-1,0,-3,-4,3,-3,-2,0
3720,-1,-1,-1,1,3,6,0,-1,0
3725,-2,-4,-5,-5,-4,-6,2,0,0
3730,-1,-3,0,0,4,1,1,-1,0
3735,0,0,-1,-1,0,-1,-2,1,0
3740,0,-1,0,-1,-6,-7,2,0,0
3745,-8,-5,-4,0,2,4,-4,-9,0
3750,10,1,4,-3,-2,-5,-1,14,0
3755,-3,-3,-5,-4,-2,5,1,-3,0
3760,-2,-3,-3,-3,-10,-4,-2,1,0
3765,-1,4,5,8,2,-3,1,-1,0
3770,-2,-1,-1,4,9,2,2,-4,0
3775,-1,-2,-1,-4,-2,-4,-4,-2,0
3780,0,-4,-4,-6,-5,-2,-1,0,0
3785,0,-1,1,-2,-12,-4,1,2,0
3790,-3,3,3,5,26,13,-4,-5,0
3795,1,-6,-12,-9,-12,-1,4,3,0
3800,-1,-2,-3,-3,-2,-3,4,-1,0
3805,0,-2,-1,1,13,6,-4,0,0
3810,-2,1,0,-1,-14,-7,0,-2,0
3815,-1,3,5,4,5,3,-3,-2,0
3820,0,1,0,2,0,-4,2,-1,0
3825,3,-1,-2,-4,-5,2,-1,0,0
3830,-3,1,-2,-1,-7,-4,-1,-2,0
3835,-1,-2,-3,0,8,4,0,-1,0
3840,0,-1,-3,-5,-7,-6,-4,2,0
3845,-1,5,7,0,-3,-1,-1,-1,0
3850,-2,-6,-9,-4,4,1,2,-2,0
3855,-5,-5,-3,-7,4,-2,0,-4,0
3860,-1,0,-2,-1,-13,-10,-5,0,0
3865,-2,0,-2,0,-1,3,-3,-2,0
3870,0,0,-1,3,12,6,-5,-3,0
3875,-2,0,1,1,-11,-1,3,-1,0
3880,-3,-3,1,3,20,-2,-8,-4,0
3885,-1,-1,0,-3,0,6,1,0,0
3890,-2,-6,-6,-7,-20,-15,2,-1,0
3895,-1,0,1,0,0,-3,-5,-2,0
3900,-2,1,0,0,2,-5,-1,-4,0
3905,0,-3,0,-2,-2,-6,-2,-2,0
3910,0,-1,-2,-2,-3,-1,-2,1,0
3915,-2,1,0,0,-2,-1,-3,-3,0
3920,1,1,1,2,0,2,-5,1,0
3925,0,-2,-3,-1,3,-1,-2,-5,0
3930,-2,2,2,-1,-8,-5,-3,0,0
3935,0,3,1,-1,0,3,-4,1,0
3940,-3,1,1,0,-5,1,-2,-3,0
3945,-4,-7,-11,3,17,5,4,0,0
3950,-4,-2,-2,-9,-22,-11,-7,-2,0
3955,-1,-1,1,1,13,15,-1,1,0
3960,3,1,8,8,21,13,-1,2,0
3965,1,5,3,-2,-14,-6,-5,0,0
3970,-1,-5,-14,-10,-11,-2,6,-3,0
3975,-3,0,0,3,4,-1,-3,-2,0
3980,-1,-1,-6,-8,-10,-5,1,1,0
3985,0,0,1,-3,-1,0,-3,1,0
3990,-1,0,3,4,5,-3,-3,-5,0
3995,3,1,5,0,-17,-16,-8,-4,0
4000,1,-4,-10,5,23,5,7,0,0
4005,-4,-8,-5,-18,-20,-4,-3,-2,0
4010,-4,-1,3,-17,-24,-9,-5,-1,0
4015,1,0,-15,11,22,19,4,0,0
4020,-8,-5,4,-1,-18,-12,-2,-7,0
4025,8,5,2,7,15,30,19,11,0
4030,-3,-4,4,12,22,1,0,-1,0
4035,-3,2,4,-15,-34,-9,-4,2,0
4040,-2,1,0,-2,-17,-3,1,-3,0
4045,-3,-1,-4,3,21,4,-2,-4,0
4050,-1,0,0,-7,-19,-14,-9,-2,0
4055,0,-1,-2,5,16,-6,-2,0,0
4060,-1,-3,-4,-8,-12,-11,-4,0,0
4065,-1,1,5,3,-5,-17,-7,-2,0
4070,1,3,3,12,17,6,1,1,0
4075,1,-7,-14,-16,-12,-7,3,-3,0
4080,-9,-12,-10,-20,-5,1,-1,-2,0
4085,0,4,4,-6,-27,-15,-9,-4,0
4090,3,-2,3,20,48,22,11,3,0
4095,-3,0,2,5,-2,6,4,-2,0
4100,2,3,3,0,-10,-1,0,-2,0
4105,-1,-2,-3,3,2,-3,-5,-2,0
4110,2,5,1,-1,-9,2,2,-2,0
4115,-2,-2,3,5,6,-3,-2,1,0
4120,3,4,-4,2,5,0,-7,1,0
4125,-7,-4,-4,-6,-3,-6,-10,-5,0
4130,4,-7,-9,0,-2,3,4,4,0
4135,-3,5,24,16,6,-5,-6,-1,0
4140,2,-2,-12,8,-3,-4,-8,1,0
4145,-8,-16,-29,-46,-18,-8,-3,-6,0
4150,-4,3,0,-11,-17,-6,-3,-3,0
4155,-1,1,4,1,9,5,6,1,0
4160,3,5,18,19,10,5,5,3,0
4165,5,7,14,24,10,-2,0,1,0
4170,-2,-3,-9,-4,-7,-1,-1,-3,0
4175,-3,-1,-2,-6,-7,-3,0,0,0
4180,0,4,0,2,5,4,-2,-2,0
4185,-2,-3,-5,-1,-1,5,0,-1,0
4190,-4,-2,2,-3,-4,2,-4,-4,0
4195,-1,-2,-5,-3,-4,-3,1,0,0
4200,0,-3,-3,-8,-5,-3,1,-1,0
4205,0,2,4,5,5,-1,3,3,0
4210,-2,1,4,3,-1,-9,1,2,0
4215,0,0,-4,-1,-3,-3,-3,-1,0
4220,-1,0,2,-2,-2,-2,-3,-2,0
4225,2,2,10,15,4,0,-1,1,0
4230,0,-3,-8,-6,-1,2,0,-4,0
4235,-3,-1,-3,-8,-5,0,2,-2,0
4240,-1,-1,-3,-6,-4,-3,0,-2,0
4245,-2,-1,-6,-10,-5,-3,-2,-3,0
4250,1,3,11,19,12,1,0,0,0
4255,3,5,18,13,3,-1,-3,-1,0
4260,-2,-11,-35,-37,-25,-4,2,-2,0
4265,-8,-11,-18,-12,13,2,2,-3,0
4270,-4,-3,2,-15,-7,0,2,1,0
4275,-4,1,4,5,1,0,-4,-3,0
4280,2,7,18,17,5,-1,-3,1,0
4285,4,7,8,12,-6,1,-4,-1,0
4290,0,-5,-6,0,13,0,-2,-2,0
4295,-1,-2,17,17,-3,-4,-4,-2,0
4300,-2,-4,-14,-6,-1,0,-2,-1,0
4305,-1,1,9,-1,-36,-33,-13,-6,0
4310,-2,-7,-22,2,62,48,15,6,0
4315,-3,-1,-12,-25,-24,-11,-5,-4,0
4320,-2,-5,-8,-14,-10,-5,6,1,0
4325,-2,-1,6,11,7,1,-1,0,0
4330,1,8,29,26,-15,-12,-9,-5,0
4335,-3,-13,-21,-22,-6,0,0,-1,0
4340,1,7,15,28,22,4,-7,-4,0
4345,3,-4,-25,-32,-21,5,6,13,0
4350,-6,-7,-9,-24,-7,-13,-2,-7,0
4355,8,16,30,44,22,8,3,4,0
4360,-9,-2,18,10,2,-7,-12,-27,0
4365,-28,-16,-47,-40,-22,-7,-14,-23,0
4370,18,8,-3,-10,-12,-1,-3,-7,0
4375,31,2,-10,-8,-8,-3,24,59,0
4380,3,-2,-20,-42,9,20,39,9,0
4385,-4,-1,31,35,25,-3,-13,-9,0
4390,-19,3,6,-18,-37,-16,-22,-32,0
4395,-7,2,-3,42,65,11,-9,-17,0
4400,-3,1,23,13,-35,-11,-17,1,0
4405,-5,-18,-25,-22,-21,-4,12,-5,0
4410,2,2,0,3,10,0,5,13,0
4415,1,3,2,-4,-21,-7,-5,-4,0
4420,3,-1,-3,5,5,2,-3,7,0
4425,2,4,0,-7,-2,-1,0,-3,0
4430,4,-1,12,24,3,-2,2,12,0
4435,-12,-10,-11,-9,-15,-4,-3,-10,0
4440,-1,6,4,22,19,-4,-11,-18,0
4445,8,-12,-21,-58,-42,-5,0,10,0
4450,-4,-9,-25,-19,24,4,9,11,0
4455,-10,-7,-13,-41,-48,-4,2,-12,0
4460,-2,2,16,14,13,0,-2,0,0
4465,12,24,43,55,21,2,-5,2,0
4470,-1,-1,-15,-17,7,-1,-4,-1,0
4475,-2,9,24,38,16,-4,-9,-6,0
4480,-6,-28,-27,-43,-58,-16,-2,-1,0
4485,-2,-4,-2,43,93,26,19,5,0
4490,-7,-5,-25,-17,21,6,5,1,0
4495,1,13,9,15,22,5,-7,-2,0
4500,6,16,25,28,4,-2,-9,2,0
4505,-2,-17,-17,-27,-19,-2,10,-4,0
4510,-7,-12,-13,-19,-35,-7,-15,-3,0
4515,-3,0,-6,-3,13,1,-11,-3,0
4520,3,12,5,7,16,6,-1,3,0
4525,0,-9,-12,-18,-28,-4,9,3,0
4530,0,4,11,13,-10,1,4,0,0
4535,-5,-10,-10,-23,-30,-19,-4,-4,0
4540,1,7,3,21,53,37,3,4,0
4545,-1,10,24,15,-1,-7,-4,-2,0
4550,-5,-13,-7,-7,-25,-6,16,0,0
4555,-4,-7,-17,-12,3,-4,-1,-5,0
4560,-2,-5,0,-8,-16,-7,-16,0,0
4565,1,7,-8,1,21,6,3,2,0
4570,5,8,21,17,-38,-4,-10,-3,0
4575,-5,-12,-10,-23,17,4,-4,-7,0
4580,-8,-9,-11,-15,-22,-15,-12,-13,0
4585,4,7,2,-3,-8,-8,-31,13,0
4590,3,10,17,21,-3,-4,-1,4,0
4595,5,-2,-2,4,-26,-5,8,24,0
4600,-3,-5,-19,-34,62,14,-27,-4,0
4605,-4,1,6,-8,3,8,-37,-9,0
4610,-5,0,-1,6,-6,-7,-14,-9,0
4615,1,0,11,23,16,-7,-16,-5,0
4620,-2,-5,-8,3,-2,-5,33,9,0
4625,-1,3,2,-3,-19,1,-4,-6,0
4630,3,2,8,13,31,-23,-1,-1,0
4635,-9,-10,-10,-35,-24,12,-10,-8,0
4640,3,2,1,7,-36,-22,-8,7,0
4645,0,1,-4,-3,-29,-15,3,-4,0
4650,3,4,8,7,22,31,-30,1,0
4655,0,-2,-1,3,-18,-10,6,-6,0
4660,-10,-14,-19,-38,-22,-4,-8,-6,0
4665,-7,9,16,49,88,30,21,4,0
4670,10,0,-8,-17,-30,-14,-14,8,0
4675,-17,-3,2,13,7,-2,-6,-14,0
4680,-4,-5,-11,-1,-12,-4,24,-10,0
4685,23,-2,-3,-19,-23,5,1,17,0
4690,34,4,-1,9,20,8,24,14,0
4695,0,-1,-2,-4,-6,6,-4,1,0
4700,-5,6,7,18,-11,-4,3,1,0
4705,-23,-11,-12,-27,-40,-27,1,-16,0
4710,2,7,15,32,6,-6,26,8,0
4715,10,8,14,21,60,16,11,10,0
4720,-4,-10,-9,-19,-26,-21,-9,-1,0
4725,1,5,14,16,12,10,4,-5,0
4730,-24,-21,-32,-51,-38,-5,-28,-14,0
4735,-40,16,7,1,-5,-25,-3,-15,0
4740,72,-31,-15,20,71,62,35,32,0
4745,-16,14,13,16,-24,-35,7,6,0
4750,18,-7,-17,-19,-54,-18,-13,-16,0
4755,-9,-18,-7,1,8,24,9,0,0
4760,-12,10,9,-4,-10,-19,-32,-14,0
4765,-14,-2,-4,-3,8,17,14,6,0
4770,-36,-21,-5,7,32,12,4,-11,0
4775,20,5,-16,-31,-49,-35,-20,-13,0
4780,26,18,10,10,19,20,14,0,0
4785,15,-5,0,5,9,11,0,-1,0
4790,-26,10,14,-3,-19,-10,-17,-3,0
4795,-10,-20,-15,-5,11,16,-2,-8,0
4800,-23,12,9,5,19,-4,-17,4,0
4805,10,-2,5,14,-5,-4,15,5,0
4810,-13,-8,-6,-6,11,8,-10,-14,0
4815,16,8,-2,-11,-16,4,-14,12,0
4820,-10,-3,-2,2,-10,-1,21,-3,0
4825,-40,3,-3,-11,-16,-13,-21,-24,0
4830,33,-14,-4,5,18,13,27,32,0
4835,3,-12,-10,2,4,5,4,1,0
4840,-3,6,3,-3,-26,-13,-10,-10,0
4845,-11,-13,-13,-16,1,7,-7,-9,0
4850,0,12,6,4,-8,-10,8,-1,0
4855,-9,4,4,-2,-5,-5,-24,-2,0
4860,-8,-5,0,-9,-1,-8,6,3,0
4865,14,1,1,16,16,-12,-8,4,0
4870,-1,0,-2,-7,-6,5,-4,2,0
4875,10,-2,-2,-4,-18,-10,-5,2,0
4880,-14,8,0,-1,-5,1,-13,-11,0
4885,15,4,4,-3,4,3,9,0,0
4890,-12,-15,-7,-2,-7,-9,8,2,0
4895,4,4,3,0,2,3,27,3,0
4900,-13,-5,-3,-7,-25,-10,-15,-4,0
4905,20,14,9,5,19,9,9,14,0
4910,-1,-7,1,1,-2,10,27,-10,0
4915,26,4,1,-7,-5,-1,-8,-1,0
4920,7,3,5,-1,6,1,-18,18,0
4925,-8,-10,-8,-5,-12,-2,6,-3,0
4930,4,24,13,5,3,-6,9,-4,0
4935,-10,-6,-3,-3,-2,10,-15,-2,0
4940,-14,-6,-1,14,32,16,20,-5,0
4945,8,3,-5,-10,-18,-2,-9,-2,0
4950,-5,-3,-2,3,7,-6,-27,-4,0
4955,-3,2,5,2,-4,-10,-6,-5,0
4960,-1,-7,-11,-12,-13,-6,2,-1,0
4965,-6,-9,-6,-1,1,-1,1,-1,0
4970,-2,-3,-1,-6,9,19,0,-1,0
4975,5,2,2,1,-13,-31,2,13,0
4980,0,11,8,10,4,-7,-17,-5,0
4985,2,-5,1,8,12,5,9,-1,0
4990,-2,1,-6,-4,-23,-18,-35,-3,0
4995,-2,-1,-8,-2,7,10,-2,0,0
5000,-4,-3,8,1,-5,6,-6,-3,0
5005,0,1,-5,-3,-12,-9,-16,0,0
5010,-5,-4,-6,-1,-1,-4,-8,-8,0
5015,-3,-7,-4,-2,7,5,-1,5,0
5020,-1,2,-7,-7,-17,-9,-3,-5,0
5025,-6,-3,-3,6,20,9,0,-10,0
5030,10,10,8,11,1,7,12,13,0
5035,-11,-12,2,-17,-17,-1,-6,-7,0
5040,0,2,-3,1,-7,-16,-9,-1,0
5045,-2,-5,-1,1,10,7,15,-3,0
5050,-3,5,-6,1,17,0,-8,-2,0
5055,2,9,14,28,12,-1,4,-2,0
5060,-6,-8,-10,-27,-50,-23,-15,-5,0
5065,4,-4,1,8,38,39,20,6,0
5070,-6,-6,-13,-15,-9,-4,-19,-6,0
5075,3,6,12,17,0,-15,5,1,0
5080,1,0,5,4,5,5,1,-4,0
5085,2,3,-4,3,-14,-12,3,1,0
5090,-4,-7,-2,-10,-6,0,-7,-2,0
5095,-1,0,-5,-4,3,-1,-5,-4,0
5100,-7,-4,-6,1,-4,-4,6,1,0
5105,9,-1,3,8,37,15,4,15,0
5110,1,4,8,11,7,-2,-3,4,0
5115,-3,-5,-11,-12,-6,5,-15,-3,0
5120,1,-3,-3,5,3,-9,3,0,0
5125,-5,-1,-5,-12,-24,-19,-22,-10,0
5130,-1,0,5,14,27,7,4,-2,0
5135,3,-2,1,9,13,-7,11,1,0
5140,-4,-14,-12,-17,-14,19,13,0,0
5145,-3,4,0,-10,-10,-7,-9,-3,0
5150,-2,-8,-10,0,3,8,6,-1,0
5155,-6,3,-10,-20,-43,-11,-11,-12,0
5160,13,9,20,38,69,11,32,18,0
5165,-5,-5,-2,-14,-35,-18,-5,-8,0
5170,1,4,1,4,2,-9,1,1,0
5175,0,-1,2,5,14,12,0,-2,0
5180,-3,-2,-1,-6,-12,2,0,-1,0
5185,0,-2,0,-1,1,-6,-4,0,0
5190,-1,4,5,5,7,0,1,3,0
5195,0,-1,-3,-5,-12,-9,-7,2,0
5200,-1,3,-3,-1,10,10,-13,-7,0
5205,-2,-1,9,2,-4,-5,3,-4,0
5210,-5,-7,-2,-15,-7,-7,-6,-3,0
5215,1,1,-5,4,10,12,-14,2,0
5220,-3,-8,-4,-6,-14,-11,-5,-1,0
5225,-4,-1,-6,-6,-18,9,-2,-2,0
5230,-3,-12,-13,-11,2,-16,-7,-4,0
5235,0,1,-1,-3,-2,4,22,5,0
5240,2,8,9,2,-14,-2,-15,-4,0
5245,0,2,8,10,-2,-4,-6,0,0
5250,1,0,-3,1,-18,11,8,-1,0
5255,-1,-3,-7,-22,14,-4,-3,2,0
5260,-3,-1,1,5,5,-3,-2,-4,0
5265,-1,1,-2,-4,-2,2,8,0,0
5270,-3,4,18,9,-6,0,-12,-6,0
5275,-2,-2,-12,-5,-7,-5,-11,-2,0
5280,-2,-2,-6,-4,6,1,-12,1,0
5285,0,9,11,11,17,-10,-30,-7,0
5290,1,-10,-2,-21,-40,-8,-9,-1,0
5295,0,4,3,26,37,7,20,0,0
5300,3,-15,13,20,9,-5,-7,3,0
5305,-4,-11,-24,-29,-21,0,10,5,0
5310,3,11,12,9,-20,-14,-36,-3,0
5315,-7,-3,-22,-33,68,27,8,-5,0
5320,1,9,3,4,8,11,30,2,0
5325,2,-2,6,8,-3,-12,-10,-1,0
5330,1,0,-5,7,39,3,8,4,0
5335,0,1,8,-3,-52,-12,-27,2,0
5340,-2,2,-6,-11,-21,-9,-27,-3,0
5345,-8,-10,-17,-25,16,16,3,-2,0
5350,2,3,-2,3,-10,-3,7,4,0
5355,-1,-1,2,5,0,2,-14,-3,0
5360,-3,1,-4,-3,-11,-11,-17,-3,0
5365,-5,-19,-4,-20,-46,-16,-8,-1,0
5370,-2,2,-3,3,45,28,0,-2,0
5375,-6,-2,3,3,-8,-9,-15,-8,0
5380,6,6,-2,5,-3,-2,-13,9,0
5385,10,11,8,11,-8,-2,-7,0,0
5390,1,-7,3,13,5,2,7,3,0
5395,-7,-10,-24,-26,-44,-25,-19,-7,0
5400,-5,-1,-10,-18,26,31,10,-4,0
5405,3,6,9,15,4,-28,5,3,0
5410,-1,5,11,16,11,2,21,-2,0
5415,3,1,14,21,-1,1,-15,1,0
5420,0,-4,-8,-8,-23,-11,-2,-2,0
5425,-7,0,-4,-1,10,20,-4,-7,0
5430,-1,0,-3,-8,-10,-9,-10,0,0
5435,1,-2,-1,-1,-5,-6,-1,1,0
5440,-2,1,-1,-2,0,0,-2,-2,0
5445,0,-4,-5,-14,-10,1,-10,-5,0
5450,-1,4,-4,6,-12,-24,-14,-6,0
5455,-10,-15,-12,-18,-15,6,10,-2,0
5460,17,9,7,4,9,0,22,23,0
5465,-11,-14,0,8,3,-1,6,-6,0
5470,7,18,3,6,-1,-2,14,-16,0
5475,21,-35,-20,15,-1,-33,28,27,0
5480,-22,-12,1,-29,-10,25,0,-20,0
5485,5,7,5,13,11,-5,-10,8,0
5490,-15,0,-7,-42,-39,-16,-18,-8,0
5495,3,19,27,41,54,19,-2,-3,0
5500,-1,-8,-19,-22,-81,-19,-16,-1,0
5505,2,-2,-10,-17,-18,6,15,2,0
5510,-11,-9,1,12,0,-13,-4,-4,0
5515,-1,4,-4,-3,25,14,0,-5,0
5520,2,-3,1,3,5,6,7,5,0
5525,-6,8,6,-1,-6,-9,-36,-8,0
5530,0,-5,-5,-1,-7,-4,17,2,0
5535,0,2,0,5,-4,7,8,-1,0
5540,-5,2,-5,2,14,0,-14,-9,0
5545,9,5,13,10,3,-13,-6,2,0
5550,-5,-19,-13,-20,-11,2,11,3,0
5555,-2,1,-6,-17,-28,0,-12,0,0
5560,-6,-8,-13,-2,22,-2,-2,-5,0
5565,4,6,1,2,7,4,4,1,0
5570,2,6,14,17,-1,-2,-18,-4,0
5575,-5,-1,-4,-4,-11,5,21,-7,0
5580,-7,-6,-9,-37,-23,-6,-18,-5,0
5585,-10,-1,-1,16,23,16,12,-3,0
5590,28,8,-6,-28,-48,-17,-49,3,0
5595,-3,10,2,10,38,-21,-6,1,0
5600,-2,4,5,16,12,1,0,5,0
5605,-2,-2,-4,-4,-14,1,-10,-8,0
5610,-8,-7,-1,10,13,-2,6,-1,0
5615,-1,4,-5,-20,-26,-1,-11,1,0
5620,1,5,9,15,13,-12,-12,-6,0
5625,-2,-15,-14,-30,-31,10,-12,7,0
5630,1,6,1,7,25,20,5,2,0
5635,-1,-7,-4,0,7,13,20,-2,0
5640,-6,-7,-10,-5,-18,-5,-10,-3,0
5645,11,10,11,12,1,-6,45,0,0
5650,-8,-10,-1,7,2,-18,-28,-1,0
5655,-2,1,12,6,-9,-4,12,-3,0
5660,11,21,21,0,11,16,8,0,0
5665,-9,-6,-12,-8,-16,-2,-46,-7,0
5670,1,-7,-15,-10,-11,-7,-4,4,0
5675,-3,-2,-3,-5,-4,-7,5,-3,0
5680,7,19,14,13,37,4,-27,-3,0
5685,0,-4,-8,-2,8,9,20,0,0
5690,-3,-2,-5,6,19,19,19,1,0
5695,-2,6,8,-2,2,-10,-17,-1,0
5700,-8,-2,10,18,0,5,-15,-11,0
5705,-1,-16,3,-12,-7,-6,22,6,0
5710,-42,-15,-23,-9,-6,-4,-7,-11,0
5715,60,16,5,-8,-21,16,-2,20,0
5720,-12,-11,-10,-1,11,2,10,-4,0
5725,2,18,18,14,4,-11,-25,-4,0
5730,-1,6,6,-18,-34,3,-24,-6,0
5735,-26,-13,-11,0,12,-6,5,-11,0
5740,15,-8,-14,-1,-1,3,21,17,0
5745,2,3,-8,-13,0,-6,-23,-1,0
5750,0,3,5,5,16,-2,3,-2,0
5755,-12,-9,-14,-16,-16,23,-21,-8,0
5760,8,-2,-3,8,9,-11,17,10,0
5765,-8,2,3,12,19,10,-8,-3,0
5770,6,-7,1,1,7,0,11,1,0
5775,-3,-3,-9,-3,-7,-3,1,1,0
5780,-4,-6,-9,-18,-23,-8,-35,-6,0
5785,-6,-4,1,6,14,-5,-2,-7,0
5790,-4,10,14,5,-15,-18,-19,-1,0
5795,20,15,-3,1,7,-15,-9,6,0
5800,2,-62,-47,-25,-15,17,31,17,0
5805,-23,10,6,0,3,-1,-12,-21,0
5810,13,4,3,9,11,-4,2,6,0
5815,-27,6,10,12,14,7,1,-13,0
5820,-2,-14,-10,-13,-1,7,-1,-5,0
5825,18,0,3,-3,-12,-17,-11,11,0
5830,-8,0,-2,-6,-21,0,1,-10,0
5835,-6,-13,-3,1,20,14,34,9,0
5840,-2,18,16,12,2,-7,4,-5,0
5845,-3,-5,-3,-8,2,21,-6,-8,0
5850,-15,0,-2,5,10,-11,5,0,0
5855,26,-3,4,14,17,4,9,16,0
5860,-9,6,2,-4,-5,-5,-25,-10,0
5865,0,-2,-5,-5,-8,-2,-12,-3,0
5870,-21,-7,-5,-7,-6,-3,-12,-14,0
5875,22,0,1,2,-8,-6,-9,9,0
5880,-10,11,9,-11,-11,0,-5,-10,0
5885,5,-5,-12,-5,-8,-2,7,0,0
5890,-35,-2,4,11,36,16,-2,5,0
5895,32,1,-4,-4,-9,-1,1,-16,0
5900,18,23,15,7,1,-20,-7,7,0
5905,1,-10,-7,3,7,-4,-11,-3,0
5910,11,1,-1,-8,-12,0,6,2,0
5915,-24,-1,0,3,-3,1,-12,-8,0
5920,-12,-8,2,-2,5,-10,-5,-2,0
5925,-9,-10,-11,-9,0,12,22,8,0
5930,3,-7,-5,-5,-12,-7,-11,-7,0
5935,-19,0,2,-4,-1,-2,-9,12,0
5940,11,13,5,6,4,3,13,-10,0
5945,-7,-6,0,3,0,-6,-3,2,0
5950,26,1,4,4,-2,-1,20,4,0
5955,-23,-9,-7,-7,2,11,-6,-9,0
5960,-19,-3,-3,4,5,2,6,9,0
5965,24,8,5,5,1,-15,-14,2,0
5970,5,0,-3,-9,-13,0,2,-3,0
5975,-28,-6,-2,-2,-7,-10,4,-9,0
5980,27,2,-3,2,4,11,1,1,0
5985,-3,0,3,7,15,2,5,8,0
5990,-29,-4,-2,-7,-13,-15,-6,-17,0
5995,46,9,2,1,4,1,10,21,0
6000,-27,-7,-5,-4,-2,-1,4,-10,0
6005,14,3,2,-4,-32,-22,-5,-4,0
6010,22,0,2,6,28,21,-1,15,0
6015,-11,-9,-5,-12,-16,-10,2,-7,0
6020,-9,-2,-4,-4,16,7,-13,-9,0
6025,-3,2,-1,-8,-15,8,-2,-9,0
6030,5,1,0,4,-4,-13,7,8,0
6035,-13,-5,0,7,14,2,2,-10,0
6040,10,-5,-8,-7,-13,-3,-16,5,0
6045,-14,-6,-2,-4,-5,-7,-4,-3,0
6050,1,0,1,-5,-6,-5,-17,-1,0
6055,8,1,0,0,3,12,12,-6,0
6060,-9,-2,3,0,-6,7,7,0,0
6065,-3,-1,-1,-1,12,21,5,3,0
6070,10,1,1,3,-4,-35,-25,-3,0
6075,-17,-6,-6,-10,-11,12,-3,-14,0
6080,7,1,3,1,5,-9,-4,25,0
6085,12,1,-3,-1,-2,-1,-6,-2,0
6090,16,5,5,-2,-11,-3,6,3,0
6095,-21,-8,5,3,29,22,-14,-7,0
6100,-1,1,-4,-5,-20,-16,-15,-7,0
6105,-18,1,3,6,10,-9,-29,3,0
6110,6,0,-6,-5,-6,0,-6,-3,0
6115,4,4,-6,0,-11,-21,-17,2,0
6120,-12,-4,-5,3,1,3,-9,-14,0
6125,-3,-8,-12,-11,5,14,6,-1,0
6130,-3,-3,-2,-5,-7,-2,-11,-2,0
6135,-3,-2,0,0,-7,-19,-11,0,0
6140,-4,0,-5,3,0,9,10,2,0
6145,-5,-1,3,2,3,-16,-9,1,0
6150,14,-3,-5,-7,5,13,1,2,0
6155,-21,-7,-7,-17,-22,7,10,-11,0
6160,20,-1,0,5,18,-24,-43,32,0
6165,3,3,4,10,8,1,29,-2,0
6170,-13,-3,-1,1,-8,-7,5,-13,0
6175,-9,-3,-8,2,-3,-5,-19,-18,0
6180,18,21,15,6,12,31,39,7,0
6185,15,3,12,7,3,4,2,-7,0
6190,-5,0,1,4,-4,12,3,10,0
6195,14,9,-5,3,22,4,-9,2,0
6200,-24,-21,-8,5,-1,-1,30,-12,0
6205,-3,-2,2,-21,-28,-13,-31,-15,0
6210,-10,-2,-2,0,-10,19,-12,-8,0
6215,0,5,-1,5,42,10,35,11,0
6220,3,-1,2,2,-4,-21,-30,-5,0
6225,-1,6,1,13,-1,-1,-7,7,0
6230,-10,-14,-7,13,28,8,10,-9,0
6235,-5,-13,-1,-4,7,11,-3,2,0
6240,9,12,11,-4,-26,7,-14,-4,0
6245,8,14,5,5,4,-6,-6,5,0
6250,-1,2,-2,-11,-5,-18,-26,-13,0
6255,15,8,8,8,-8,-12,-7,4,0
6260,-22,-20,-11,-5,-23,-13,9,-8,0
6265,1,1,3,-8,-35,-24,-47,19,0
6270,10,5,-8,17,113,80,62,-12,0
6275,0,-6,0,2,-29,-13,8,18,0
6280,11,0,8,3,-16,-1,-11,14,0
6285,-19,-13,-13,-15,22,2,6,-30,0
6290,-4,5,3,2,2,-28,-24,-9,0
6295,3,-3,2,11,1,-3,22,33,0
6300,-4,4,1,4,-59,4,0,7,0
6305,-5,-12,0,-14,22,-9,-10,-21,0
6310,-4,2,-2,-9,-9,2,11,2,0
6315,-10,6,9,-1,-46,6,-17,-49,0
6320,-1,-5,-12,4,45,-15,2,9,0
6325,-2,-12,-13,-14,21,7,-24,-5,0
6330,12,13,23,32,-39,-31,-15,34,0
6335,15,-11,-17,-38,-59,-6,-4,54,0
6340,12,17,6,13,29,14,-1,-23,0
6345,4,10,0,-3,71,39,49,-5,0
6350,-22,-12,-6,-15,-28,-7,-4,-25,0
6355,-15,-14,-9,-3,-18,-13,-12,6,0
6360,-7,-10,-10,-19,7,-31,-18,-19,0
6365,7,6,17,31,-15,13,-9,-5,0
6370,8,-2,-3,3,-54,-38,4,13,0
6375,-3,-1,2,20,60,41,94,11,0
6380,0,-6,-2,-6,6,1,-63,2,0
6385,-17,-15,-3,18,-14,3,10,-5,0
6390,-12,7,-2,-3,-5,-39,-34,9,0
6395,18,18,22,28,22,6,-32,-46,0
6400,-6,-10,-14,-10,-10,-9,50,6,0
6405,5,-5,-5,-1,-27,37,-11,40,0
6410,-15,-19,-15,-18,-15,-23,-27,-25,0
6415,-4,4,8,15,100,39,34,-13,0
6420,-3,-4,2,20,-32,-63,-51,23,0
6425,5,6,-15,-38,52,7,-13,3,0
6430,6,5,14,16,-89,4,-22,-2,0
6435,-8,-5,-10,-16,11,10,-16,-38,0
6440,26,22,19,4,-41,35,61,31,0
6445,-9,-6,-11,-21,-34,-37,12,9,0
6450,-9,-7,-7,-6,29,-8,-23,-17,0
6455,0,7,2,1,3,40,39,5,0
6460,-23,-15,-3,-8,-19,-19,-48,-63,0
6465,-15,-8,-18,-15,-10,-36,-23,13,0
6470,25,2,-2,-2,10,32,32,33,0
6475,11,4,7,1,-58,-22,22,-11,0
6480,-26,-15,9,27,49,-25,-65,-42,0
6485,-2,12,-9,-29,-29,3,34,-18,0
6490,16,0,-33,-93,127,33,-11,34,0
6495,1,-3,0,-21,-17,-1,-47,10,0
6500,7,2,-1,16,32,18,36,26,0
6505,-12,-16,7,22,-33,-27,-20,-24,0
6510,-11,-12,11,38,-48,-15,-22,-23,0
6515,4,20,0,-19,-6,-24,-33,9,0
6520,3,6,-3,-23,-44,20,64,-5,0
6525,3,0,9,24,-69,-12,-73,-17,0
6530,-7,-10,-11,-8,-34,-23,42,7,0
6535,11,8,22,21,-93,-25,2,3,0
6540,-34,-36,-33,-15,25,12,-32,-10,0
6545,35,28,17,-14,34,-15,1,24,0
6550,15,13,14,29,50,37,28,13,0
6555,-25,-23,-19,-13,-40,-33,-16,-16,0
6560,5,8,-1,-22,-46,-1,7,-6,0
6565,-19,-30,-25,-30,60,20,23,14,0
6570,-4,4,2,0,43,27,-21,-18,0
6575,16,29,25,32,1,-25,-15,4,0
6580,0,-3,-18,-40,29,40,65,4,0
6585,-4,-2,11,29,22,12,28,-2,0
6590,-10,-7,5,22,-91,0,-31,-26,0
6595,-3,-17,-28,-38,95,8,33,24,0
6600,11,10,15,9,-38,14,-13,2,0
6605,-8,-6,2,31,-30,-32,-6,-28,0
6610,-9,1,-13,-29,-63,-27,39,-4,0
6615,26,15,-8,-28,68,68,11,58,0
6620,-14,-18,-10,-1,0,-20,-2,-25,0
6625,5,6,3,-9,-58,-6,15,-10,0
6630,10,15,19,19,-74,-14,-18,9,0
6635,-25,-19,-13,0,-11,-21,-10,-38,0
6640,3,7,4,-4,85,57,-18,10,0
6645,4,-2,0,4,-7,10,14,20,0
6650,-14,-14,1,14,-87,-35,4,-33,0
6655,-4,-6,-15,-24,18,-4,-23,24,0
6660,2,8,2,4,-40,-14,-6,-15,0
6665,-24,-33,9,22,-30,-24,-5,3,0
6670,18,15,-2,3,38,11,52,11,0
6675,-32,-33,-24,-30,22,5,-40,-6,0
6680,20,12,9,15,-5,-30,-25,62,0
6685,29,21,-1,-36,-2,21,14,13,0
6690,-2,0,-2,-21,122,53,-25,-2,0
6695,-5,0,14,43,26,-9,2,-22,0
6700,-9,-17,-22,-41,67,5,-28,-9,0
6705,11,18,17,28,54,60,29,10,0
6710,-5,0,5,-8,-28,-3,-4,-6,0
6715,5,7,9,11,-77,-30,-27,-26,0
6720,-15,-4,-6,-7,-38,-15,-19,-19,0
6725,7,-5,3,8,-20,-15,-31,0,0
6730,8,9,2,-5,0,10,-54,-27,0
6735,-2,3,12,24,-11,-28,-72,36,0
6740,9,-1,-5,-4,-31,-26,73,0,0
6745,-5,7,3,4,-41,2,-17,-5,0
6750,-28,-28,-19,-22,-71,-33,-15,-26,0
6755,34,17,29,43,-28,2,27,64,0
6760,-2,-5,-19,-15,68,27,20,-20,0
6765,-5,-5,-11,-4,41,-1,-51,2,0
6770,14,23,19,21,26,-15,-26,6,0
6775,-15,-15,-27,-54,-63,5,3,-40,0
6780,-13,-8,14,27,-23,-17,-18,-4,0
6785,5,5,-5,-17,19,10,23,5,0
6790,-20,-16,-14,-1,7,-2,-21,-1,0
6795,-7,-3,-8,-9,76,11,9,-32,0
6800,16,7,16,23,-63,-29,-15,56,0
6805,-10,-10,-19,-16,66,7,-67,-30,0
6810,4,-4,-25,-58,63,53,49,14,0
6815,2,4,8,23,11,-3,8,17,0
6820,-2,5,4,-2,3,23,6,-19,0
6825,-12,-4,-1,11,-65,-77,-47,-20,0
6830,0,-4,5,26,31,-23,-27,9,0
6835,-1,-2,-2,-8,-91,-9,1,-13,0
6840,-2,-3,-13,-16,63,24,37,-2,0
6845,4,15,1,-9,-8,-7,20,-18,0
6850,5,-2,6,9,33,19,24,44,0
6855,-22,-25,-18,-23,-112,-46,-12,-25,0
6860,2,2,18,43,-9,-12,-82,-7,0
6865,3,-3,-26,-68,28,23,54,25,0
6870,10,12,9,7,-45,-1,-1,-28,0
6875,-34,-19,-25,-25,-3,-13,12,-21,0
6880,19,15,5,8,51,35,7,26,0
6885,34,36,46,71,-51,-17,-22,24,0
6890,-21,-19,-23,-49,82,27,52,-28,0
6895,18,12,22,20,-8,-11,-23,17,0
6900,-2,-7,-24,-53,-43,12,14,-13,0
6905,5,6,19,9,-100,-54,-71,15,0
6910,9,1,-2,49,48,30,7,17,0
6915,-18,-8,-4,-9,-78,-11,13,-60,0
6920,-1,0,10,17,-46,-19,-8,29,0
6925,29,19,17,15,90,37,32,28,0
6930,-3,-5,-12,-13,31,-3,-14,-22,0
6935,-6,7,2,3,45,22,-6,1,0
6940,8,-8,7,28,-85,-44,-22,15,0
6945,-41,-35,-45,-56,67,44,52,-46,0
6950,5,12,4,10,54,7,-51,-6,0
6955,8,3,13,30,2,13,-5,31,0
6960,-10,4,9,-33,-52,-41,-13,-28,0
6965,-11,-18,1,28,11,38,4,1,0
6970,-12,-8,4,7,-95,-88,-55,-20,0
6975,16,1,-16,20,98,3,-6,16,0
6980,10,-2,-4,-22,-15,33,8,12,0
6985,-5,-6,-6,-25,23,25,17,-16,0
6990,0,8,14,18,-45,-41,-4,15,0
6995,12,9,-5,-23,-39,-10,-11,10,0
7000,-18,-1,-2,6,-26,-7,1,-32,0
7005,8,2,-6,19,56,7,-16,2,0
7010,-17,-26,-13,-17,-43,-12,29,-2,0
7015,10,13,17,4,-53,-1,-22,-3,0
7020,-5,-1,-10,-38,-73,-3,57,3,0
7025,-12,-9,-15,-40,18,1,23,4,0
7030,-5,2,5,2,-47,-6,-48,-15,0
7035,2,-7,3,20,47,1,31,13,0
7040,3,2,-19,-2,112,70,32,8,0
7045,0,-6,6,20,-72,-3,26,8,0
7050,14,12,4,-9,-49,4,17,6,0
7055,4,-2,0,-1,-29,-15,-18,22,0
7060,-1,3,-3,-2,54,25,17,-14,0
7065,-12,-17,-7,-9,-104,-16,44,-14,0
7070,6,12,-2,1,100,48,10,14,0
7075,-10,-7,1,-17,-30,-20,7,-30,0
7080,1,5,11,19,29,8,8,-4,0
7085,4,9,5,22,-56,-36,-38,-4,0
7090,-12,-20,-21,-20,43,44,25,11,0
7095,-3,-2,-1,-1,-13,3,3,-11,0
7100,-10,-9,-10,0,45,-1,-31,-7,0
7105,-9,-28,-8,11,5,-35,-45,5,0
7110,11,40,27,48,-35,-30,-22,-20,0
7115,4,12,-9,-33,54,32,8,21,0
7120,-7,-16,-6,-7,-40,-27,4,-16,0
7125,-11,-6,6,2,-80,-75,-43,0,0
7130,27,-5,-2,-7,6,97,28,49,0
7135,-13,-8,-7,19,90,40,62,-25,0
7140,-5,5,20,32,-112,-68,-41,-3,0
7145,-11,-4,-14,-52,29,30,8,-14,0
7150,-5,-1,10,6,10,-14,-27,-23,0
7155,-8,-11,-22,-17,13,13,27,-12,0
7160,3,4,1,0,11,-2,-19,39,0
7165,12,1,2,20,-15,1,-17,25,0
7170,12,7,16,4,-49,-46,-28,-24,0
7175,20,11,-3,-4,84,27,-4,16,0
7180,-13,-11,-13,-22,35,26,0,-10,0
7185,-3,20,15,17,-3,6,18,-24,0
7190,-12,-7,-3,5,-35,-48,9,-4,0
7195,-11,-14,1,-8,-105,-16,-71,-8,0
7200,0,-7,-12,6,55,18,11,14,0
7205,11,15,11,1,-77,-6,4,22,0
7210,-2,-5,-11,-5,46,34,45,15,0
7215,9,5,22,19,-128,-31,41,-20,0
7220,-1,2,-4,-5,71,-3,12,7,0
7225,2,-2,0,13,15,11,62,1,0
7230,-10,-10,-11,-12,-22,-5,16,7,0
7235,2,21,21,8,-64,-30,-8,-10,0
7240,11,0,-10,-16,39,12,9,9,0
7245,14,8,9,19,51,25,-2,14,0
7250,-9,-6,-15,-45,-73,26,27,-6,0
7255,-16,-11,-4,1,-53,-46,-33,-16,0
7260,9,1,6,18,33,-8,-37,15,0
7265,17,20,1,1,24,-1,-24,-5,0
7270,-2,3,8,4,-10,1,-2,-7,0
7275,-6,-8,2,12,25,14,1,-3,0
7280,-5,-2,-5,-13,-50,-18,-19,-28,0
7285,-12,-13,-14,-16,-18,-16,-17,0,0
7290,-5,-4,-10,-1,53,7,-15,-3,0
7295,5,4,0,-17,-49,6,42,11,0
7300,0,3,2,5,13,-9,15,-8,0
7305,6,6,-3,-5,-6,10,-7,16,0
7310,16,4,12,21,41,35,14,31,0
7315,-13,-8,-7,6,32,-15,-29,-27,0
7320,-6,-7,-2,-17,-50,25,7,-7,0
7325,-18,-19,-7,-7,-10,-41,-51,-28,0
7330,-4,10,3,7,-6,-1,16,-4,0
7335,11,7,-4,-14,0,-3,-1,2,0
7340,-3,-5,-4,5,9,-6,-15,11,0
7345,-11,-20,-11,-4,22,14,-28,-22,0
7350,-1,14,15,8,-99,-70,-62,-10,0
7355,4,-2,-14,1,98,40,45,32,0
7360,-2,4,15,14,-80,-30,-5,-31,0
7365,-15,-7,2,-5,-71,19,10,-12,0
7370,-15,-20,-6,20,43,3,-3,-7,0
7375,1,-3,-4,0,44,-11,19,12,0
7380,7,6,-4,-31,-61,-4,-27,1,0
7385,-9,-6,-6,-8,-53,-28,3,-3,0
7390,9,3,4,-4,3,32,16,8,0
7395,-23,-16,-1,30,61,31,-14,-21,0
7400,13,30,17,12,8,-8,-16,22,0
7405,10,11,6,0,4,-12,19,-18,0
7410,7,2,2,-6,-24,3,-23,18,0
7415,-1,-9,-1,-6,-13,-12,-23,-16,0
7420,-8,-20,-25,-25,25,8,23,-17,0
7425,-11,7,9,21,56,16,-35,-29,0
7430,-29,-17,-1,-1,-101,-55,-29,-20,0
7435,-3,-8,-28,-16,63,16,30,43,0
7440,46,31,34,35,26,12,9,33,0
7445,2,1,1,6,25,-6,-22,6,0
7450,-25,-32,-34,-45,-10,-6,13,-33,0
7455,-12,0,1,-15,-8,2,-12,-25,0
7460,-7,6,0,-4,-54,-27,-15,-5,0
7465,8,16,9,13,-1,16,-3,27,0
7470,12,-6,-1,6,23,26,49,16,0
7475,-5,8,1,2,-33,-29,-65,-12,0
7480,-5,-5,-1,10,15,-8,0,-19,0
7485,17,4,2,-8,51,12,-14,10,0
7490,-4,-1,1,6,-13,-17,12,1,0
7495,10,3,9,2,-51,-28,-40,-14,0
7500,-16,-22,-29,-24,56,27,2,-14,0
7505,2,4,2,-8,-70,-15,3,37,0
7510,-12,-8,-14,8,109,10,11,-22,0
7515,17,5,24,33,-99,6,-21,8,0
7520,-13,-12,-39,-65,82,-21,6,-10,0
7525,4,2,17,8,-64,0,11,6,0
7530,-5,3,4,-1,-58,-46,-32,-5,0
7535,-11,-8,2,33,93,69,24,-15,0
7540,-1,-11,4,7,-85,-51,-15,27,0
7545,-1,-5,-6,-3,-17,4,1,-11,0
7550,9,6,1,-7,72,43,7,13,0
7555,-11,-13,-9,-15,-28,-29,-24,-21,0
7560,6,12,32,74,-54,15,21,-6,0
7565,-13,-22,-46,-43,127,56,65,4,0
7570,21,15,20,25,-56,-51,-34,35,0
7575,15,17,8,0,32,23,-11,15,0
7580,-3,7,11,12,1,-10,7,-25,0
7585,-7,-5,-8,-29,-79,-27,-50,-18,0
7590,-1,1,-6,-8,-14,19,22,-8,0
7595,-14,-13,-6,-16,-42,-39,12,10,0
7600,-7,-3,-3,-3,17,54,14,0,0
7605,14,29,7,10,66,-33,-7,17,0
7610,-13,-10,0,-7,-39,-2,-18,-22,0
7615,22,5,-13,-35,-61,-21,14,28,0
7620,-23,-33,-23,1,-18,-41,-37,-7,0
7625,-4,2,9,-3,-50,14,23,8,0
7630,10,7,2,6,60,44,38,4,0
7635,-13,4,6,1,-65,-35,2,-55,0
7640,7,-9,-11,-23,-7,-29,-20,42,0
7645,-12,-13,-3,7,35,13,-65,-25,0
7650,4,9,15,24,-43,-15,-15,-2,0
7655,-9,-5,-3,28,-8,-15,-10,-16,0
7660,-16,-15,-30,-62,28,31,4,-12,0
7665,-3,2,-8,17,111,80,61,-13,0
7670,-11,-1,12,16,-126,-71,-40,-14,0
7675,38,1,-12,-2,127,12,-56,69,0
7680,5,19,21,6,17,14,12,-35,0
7685,-1,-14,-25,-21,32,46,47,25,0
7690,-13,-8,-2,1,-23,29,-30,-24,0
7695,-9,13,3,-18,-57,10,48,-9,0
7700,14,11,6,6,-8,-9,-76,31,0
7705,-3,-6,5,11,-41,-46,-61,-48,0
7710,23,12,-7,-25,69,16,-7,36,0
7715,16,21,47,34,-128,-81,-83,1,0
7720,-21,-16,-32,-4,48,85,65,-34,0
7725,6,8,13,19,-57,-5,-25,14,0
7730,27,0,-19,-19,62,20,127,6,0
7735,-18,-5,18,35,-82,14,-17,11,0
7740,5,-4,3,20,13,-47,-54,-4,0
7745,-18,-8,-14,-36,-57,-30,-44,-16,0
7750,-9,-15,-53,-59,88,72,89,-52,0
7755,2,10,5,12,-12,23,-42,-11,0
7760,14,10,19,22,-44,-29,-84,23,0
7765,-4,-5,5,3,-83,-62,12,-25,0
7770,-12,-6,9,4,-28,-21,-65,-11,0
7775,9,34,-3,-22,58,37,77,-41,0
7780,2,0,-5,-16,-9,30,22,12,0
7785,6,-12,2,7,-48,-15,76,7,0
7790,-4,8,23,61,-62,-85,-128,-11,0
7795,-32,-51,-56,-70,127,25,34,-9,0
7800,1,3,0,-14,35,26,44,30,0
7805,-5,3,8,14,-17,-3,14,10,0
7810,8,0,10,25,6,22,-38,24,0
7815,-13,-14,-18,-33,-41,-12,-2,-21,0
7820,8,10,23,31,-71,-28,-11,13,0
7825,-6,-10,-14,-18,26,6,-5,-19,0
7830,1,0,-11,-8,23,3,-11,36,0
7835,5,7,9,6,11,-3,5,11,0
7840,-20,1,7,5,-71,-26,-30,-80,0
7845,9,-7,-8,17,27,2,-3,46,0
7850,-14,-12,-9,-35,-56,-14,-23,6,0
7855,4,-4,5,22,-25,-31,-16,15,0
7860,-1,-2,-10,-7,55,41,78,-21,0
7865,-4,1,0,2,23,12,-38,21,0
7870,-5,5,10,-4,-51,-30,-67,-7,0
7875,-11,-7,-10,6,36,3,8,-22,0
7880,-6,-11,-8,-29,1,18,5,21,0
7885,18,15,13,9,2,11,35,-15,0
7890,5,2,-12,-22,2,-16,-23,-13,0
7895,0,3,-2,-17,32,12,-20,21,0
7900,-21,-17,-2,7,-34,-9,-22,-23,0
7905,0,1,-1,0,23,20,-37,-10,0
7910,-11,2,-3,-14,-48,5,49,-8,0
7915,33,-3,-2,11,57,-12,-4,41,0
7920,7,12,4,-12,-41,-6,32,12,0
7925,-21,-23,-13,-9,30,-20,-23,15,0
7930,-11,2,3,19,-37,-17,72,-27,0
7935,-12,-1,-2,-1,-8,-22,-89,7,0
7940,9,2,13,17,-16,-7,40,29,0
7945,1,-1,-4,-13,-32,-18,5,-17,0
7950,3,-2,6,8,36,24,36,5,0
7955,-8,-3,-4,-12,-30,12,-20,5,0
7960,8,2,4,12,9,-31,-52,-9,0
7965,-13,3,2,-1,-38,-51,-61,-25,0
7970,-7,-14,6,15,7,-5,-51,5,0
7975,7,4,-5,-7,46,28,45,16,0
7980,-7,-17,-10,-25,-39,21,-5,-18,0
7985,13,19,4,-9,-1,8,4,29,0
7990,20,15,10,-14,0,19,23,10,0
7995,-8,-8,4,20,18,-15,-19,-18,0
8000,-1,8,3,-11,-45,1,47,-31,0
8005,-10,-16,-3,13,-57,-25,-33,-1,0
8010,-6,-9,-24,-41,79,31,-1,33,0
8015,-10,-5,5,9,-45,-18,50,-22,0
8020,15,10,11,23,17,-30,-71,5,0
8025,6,7,5,6,3,36,51,-27,0
8030,-22,-17,-6,-3,-30,-17,13,-3,0
8035,20,15,9,-3,-12,-5,-28,9,0
8040,9,8,5,9,17,9,21,29,0
8045,-8,-2,1,-6,-6,22,27,-16,0
8050,7,0,-3,4,7,-22,-30,20,0
8055,-17,-10,-2,7,-12,1,12,-14,0
8060,2,7,-4,-16,1,-1,-25,3,0
8065,2,1,2,-9,-35,-2,31,11,0
8070,4,11,5,6,-36,-5,5,-17,0
8075,-1,-10,-11,-20,61,35,1,20,0
8080,-7,-5,-2,3,0,-1,0,-15,0
8085,9,5,-2,-13,-1,-13,4,16,0
8090,3,-3,1,18,16,-4,-14,-15,0
8095,14,8,6,-15,-19,36,9,7,0
8100,-17,-18,-10,9,9,-16,0,-1,0
8105,-3,-7,-3,2,22,17,18,12,0
8110,0,2,0,-11,-8,-14,-24,-19,0
8115,2,2,-4,-3,-35,8,14,3,0
8120,0,0,-2,-3,21,25,-1,8,0
8125,8,8,6,11,15,-3,4,0,0
8130,-8,-5,8,8,5,-1,5,-6,0
8135,-25,-14,-12,-13,-34,5,-9,-48,0
8140,24,0,-5,4,12,-24,-13,62,0
8145,10,7,12,12,-2,-13,-15,-23,0
8150,-5,5,1,-5,-25,-3,-43,-13,0
8155,-6,-7,-2,-2,0,-6,30,-8,0
8160,-14,3,1,-3,-40,-23,-26,-31,0
8165,8,3,-1,1,41,6,-94,10,0
8170,-13,-26,-16,-13,9,-12,46,15,0
8175,-7,-2,3,13,-6,-4,-15,-5,0
8180,1,7,1,-2,-12,-11,-4,-7,0
8185,-2,1,0,2,-37,-11,13,-6,0
8190,8,8,-4,-16,3,15,8,14,0
8195,4,0,3,16,14,-17,-21,14,0
8200,-4,-4,-5,3,5,11,6,-22,0
8205,-10,-2,6,6,4,0,24,4,0
8210,-5,-8,-10,0,29,23,2,-12,0
8215,12,5,0,-2,5,-8,4,23,0
8220,-11,-10,-2,-1,-2,15,35,-38,0
8225,-16,-17,-15,-5,12,-13,-68,18,0
8230,10,11,2,-1,2,-15,-26,5,0
8235,-17,-14,-3,-1,-11,3,32,-21,0
8240,-19,-12,-20,-26,-6,-11,25,-14,0
8245,23,19,10,7,36,-13,-13,8,0
8250,-4,-6,3,6,-14,-3,14,14,0
8255,-9,-7,-4,-5,-19,-6,-34,-24,0
8260,0,-4,8,16,-11,-9,-14,18,0
8265,10,12,7,7,17,27,34,-13,0
8270,-5,-1,3,-1,-14,-9,-14,-3,0
8275,2,6,2,-2,-5,-8,6,-10,0
8280,0,-4,-2,3,3,5,-14,10,0
8285,-10,-7,-3,5,-18,-6,-25,-14,0
8290,5,-1,-2,-13,2,27,52,-3,0
8295,-19,-13,-6,2,-20,-39,-84,1,0
8300,5,9,-5,-17,29,2,40,-6,0
8305,1,1,4,8,11,18,8,4,0
8310,-4,-3,-5,6,11,-15,-14,7,0
8315,-4,1,-4,-25,-20,4,6,-10,0
8320,17,7,11,22,15,-8,-80,17,0
8325,-8,-8,-11,-18,-20,-2,20,-6,0
8330,1,0,6,6,5,9,-3,-5,0
8335,5,8,0,-2,5,-1,9,12,0
8340,-2,2,6,1,-12,7,-11,-9,0
8345,-9,-12,-11,-12,4,8,17,7,0
8350,16,9,2,4,-3,-7,-17,15,0
8355,5,0,2,4,14,16,19,5,0
8360,-10,-6,-4,-9,-18,-1,27,-14,0
8365,-1,-4,-1,0,-2,-9,-14,4,0
8370,-10,-3,-5,-5,-11,-11,1,-10,0
8375,8,2,4,16,19,9,-13,16,0
8380,0,2,-2,-17,10,2,-6,-8,0
8385,-15,-15,-14,-26,-17,-6,17,-9,0
8390,3,5,4,4,5,-3,-23,-6,0
8395,5,3,-1,-1,6,9,21,6,0
8400,2,5,8,-8,-42,-9,1,12,0
8405,8,6,3,13,2,6,-17,-3,0
8410,-6,-3,-3,-4,22,9,28,-4,0
8415,2,0,2,4,-5,-3,27,9,0
8420,-5,0,-2,14,4,-15,-27,-9,0
8425,5,6,3,-1,30,23,14,10,0
8430,-6,-3,-2,-6,-25,2,-2,-9,0
8435,11,5,5,5,19,1,23,11,0
8440,5,1,4,8,-8,8,8,7,0
8445,-5,-6,2,-1,-4,-8,-4,-12,0
8450,-4,-5,-5,4,9,-9,-13,-2,0
8455,-10,-4,-4,-1,-10,2,7,-21,0
8460,7,3,2,4,15,13,5,22,0
8465,-5,-7,-4,-9,-25,-10,-5,4,0
8470,6,6,4,16,61,17,1,-6,0
8475,5,6,1,-7,-32,-15,-12,6,0
8480,-8,-5,4,4,-24,-10,-12,-18,0
8485,-13,-15,-25,-49,-9,-10,27,-3,0
8490,13,6,2,7,19,8,-12,7,0
8495,-13,-10,-7,4,13,-12,-5,-19,0
8500,9,6,1,4,-8,9,-10,20,0
8505,5,12,11,11,6,-6,14,-8,0
8510,-8,-4,-4,-15,-31,3,-4,-10,0
8515,3,2,-2,0,13,23,-3,6,0
8520,-1,-3,-1,-1,-6,-32,-33,-6,0
8525,-3,1,6,21,4,-5,-76,-8,0
8530,-4,-3,-5,-7,-15,-3,14,4,0
8535,0,1,1,-1,5,4,4,-3,0
8540,1,2,0,3,5,6,27,3,0
8545,1,2,4,1,-13,13,21,0,0
8550,0,-3,-3,6,40,-10,-8,3,0
8555,-3,5,-4,-22,-51,-10,-29,10,0
8560,-2,-2,-11,-1,74,31,12,-25,0
8565,11,3,4,18,-7,-10,41,29,0
8570,-4,-4,0,-21,-23,29,1,-6,0
8575,-3,-3,3,6,18,-7,20,6,0
8580,-3,-1,1,0,-18,-1,-4,-2,0
8585,-2,1,-1,2,6,4,0,-13,0
8590,-2,0,4,13,-6,-4,-8,0,0
8595,7,-2,-6,-8,1,17,28,3,0
8600,-4,-1,2,3,-4,-3,-14,7,0
8605,-3,-5,-4,-3,-10,0,-9,-7,0
8610,2,5,7,3,-2,-4,-5,2,0
8615,-2,-6,-8,-10,3,-10,12,-5,0
8620,2,0,5,14,30,-8,-26,4,0
8625,-1,4,-5,-22,-10,10,21,-15,0
8630,-4,-10,-17,-17,11,9,-72,23,0
8635,0,5,6,5,-11,-20,-8,-8,0
8640,2,5,7,7,4,5,1,-10,0
8645,-3,-2,-6,-5,-10,-9,-13,-3,0
8650,-1,2,9,7,-18,-17,-36,-15,0
8655,-3,-5,-2,0,10,11,3,5,0
8660,-3,-4,-6,-6,-22,-1,-15,6,0
8665,3,3,2,7,18,5,-2,-6,0
8670,-4,-5,-2,-3,-16,-18,-14,0,0
8675,-5,-6,-1,2,7,3,-32,-12,0
8680,-3,-9,-17,-19,-32,-9,12,8,0
8685,2,20,11,8,28,-6,-15,-6,0
8690,4,-3,1,2,-9,-2,17,19,0
8695,1,-1,-2,-5,-6,-8,-30,-6,0
8700,6,8,4,-6,-3,19,69,-2,0
8705,-12,-21,-18,-9,-14,-28,-18,35,0
8710,7,16,9,9,2,7,9,-17,0
8715,13,2,4,4,28,21,64,3,0
8720,-9,3,21,23,-4,-21,-12,24,0
8725,4,-17,-40,-33,-19,-3,-26,5,0
8730,-12,-10,-2,2,0,-15,-75,-26,0
8735,-3,6,11,10,-2,-1,3,-4,0
8740,-8,-3,-12,-14,-2,10,-2,-30,0
8745,1,8,20,14,16,4,25,-20,0
8750,-3,-12,-10,-1,-2,-14,4,-8,0
8755,2,5,-4,-4,-1,9,-25,4,0
8760,8,14,11,3,-2,1,-20,-10,0
8765,-7,-7,4,5,-8,5,5,-8,0
8770,15,5,-5,-21,-15,8,40,28,0
8775,-5,-5,-2,3,3,-14,-14,-5,0
8780,-9,-10,-9,-8,-8,-13,-19,-10,0
8785,1,-1,-2,2,7,18,-4,6,0
8790,-7,3,2,4,-12,-6,19,-6,0
8795,7,7,0,0,11,-1,-9,4,0
8800,-2,-8,-21,-18,7,10,-42,-4,0
8805,12,6,11,6,-14,-9,43,8,0
8810,-5,-10,-11,0,-7,-16,-2,6,0
8815,-3,15,20,12,15,2,-4,-7,0
8820,-5,-15,-9,8,-28,-11,28,-9,0
8825,-3,-18,-39,-46,8,39,16,17,0
8830,0,4,0,-13,-45,-7,14,-6,0
8835,-10,-10,-6,-4,-19,-4,-5,-7,0
8840,3,8,10,1,35,-5,-17,11,0
8845,5,8,11,27,22,-4,-15,-4,0
8850,10,3,-19,-55,-22,6,16,0,0
8855,-21,-28,-18,-29,-4,-1,-22,-19,0
8860,1,10,19,11,-39,-12,12,-8,0
8865,-1,6,26,49,22,-24,-13,3,0
8870,-5,-2,-3,-11,-17,14,3,-6,0
8875,8,-5,-2,21,76,-12,-9,16,0
8880,-7,-9,-8,-11,-30,-16,-18,-8,0
8885,-5,-6,-7,-19,-17,1,2,-2,0
8890,-24,-16,0,13,-25,-30,-33,-36,0
8895,8,10,-3,-16,-35,3,17,26,0
8900,12,-1,-6,-8,10,14,5,16,0
8905,-5,-1,6,10,-3,-18,0,14,0
8910,30,22,15,10,32,36,54,23,0
8915,-8,-15,-9,2,1,-3,-9,-29,0
8920,-6,-4,1,6,24,-2,9,-6,0
8925,-8,-2,-1,-11,-31,7,2,-5,0
8930,-8,-11,-1,16,-6,-28,-3,-2,0
8935,-6,-6,-13,-8,57,23,-12,4,0
8940,6,5,3,-11,-39,-24,-13,5,0
8945,-5,-3,-3,-14,28,21,11,-15,0
8950,2,2,5,17,17,-25,-18,18,0
8955,4,2,1,1,-21,-6,7,12,0
8960,-4,0,-1,5,1,7,-1,-2,0
8965,1,-1,2,-1,-3,-4,0,-8,0
8970,-9,-10,-9,-6,12,11,12,-8,0
8975,-1,2,1,0,-23,-7,-10,-2,0
8980,2,-6,-4,-5,10,9,13,16,0
8985,1,2,4,-1,-9,-6,-8,-7,0
8990,-3,2,0,3,5,13,25,0,0
8995,2,2,3,2,-38,-20,-37,-3,0
9000,-10,-8,-8,-4,6,6,9,-16,0
9005,4,6,4,10,22,12,11,14,0
9010,17,12,16,18,-10,44,-10,13,0
9015,-1,2,1,-17,-24,6,-9,-14,0
9020,-2,-6,-2,6,11,-10,6,2,0
9025,0,-3,1,5,-9,-23,-56,-1,0
9030,-7,0,-1,-1,19,-6,5,-11,0
9035,0,2,6,6,-56,-9,10,2,0
9040,-1,0,-4,-9,-2,7,-6,4,0
9045,-1,-2,-8,-6,3,14,16,-16,0
9050,-1,-4,0,6,2,-14,-22,9,0
9055,-2,5,8,2,-1,-14,-27,-10,0
9060,-8,-7,-3,-10,8,0,-22,-9,0
9065,1,0,-3,5,26,5,-7,19,0
9070,3,2,2,-9,-68,-6,-14,6,0
9075,-6,-7,-9,-10,49,20,4,-4,0
9080,0,-1,0,10,-2,-6,-7,1,0
9085,0,0,2,1,-38,-22,2,-6,0
9090,-14,-6,-2,-5,-3,-15,-22,-14,0
9095,2,-2,-8,-5,-17,-10,-66,0,0
9100,-10,-6,-6,-9,7,27,14,-16,0
9105,0,0,5,3,-15,-11,4,7,0
9110,11,0,-7,1,23,-4,4,28,0
9115,0,-2,-4,10,25,29,22,-20,0
9120,-1,-5,-5,2,5,-9,-10,-6,0
9125,-14,-4,-4,-1,-3,-6,-13,-12,0
9130,3,10,0,-14,7,6,13,-2,0
9135,5,5,11,14,0,-2,11,-2,0
9140,-1,-10,-4,-5,-31,-20,-13,5,0
9145,-12,-15,-14,-5,1,10,9,-10,0
9150,-7,-2,3,-13,3,3,-7,-7,0
9155,0,4,-1,3,-5,-16,5,2,0
9160,5,5,5,-2,11,11,5,6,0
9165,1,4,-3,-12,-17,3,-7,-1,0
9170,-1,-2,-4,6,43,3,7,-8,0
9175,-7,-4,-2,-4,-6,5,8,0,0
9180,6,8,8,14,11,6,7,4,0
9185,14,5,0,-8,-18,11,10,20,0
9190,-5,-5,0,12,18,-6,-23,-19,0
9195,0,-1,-1,9,-13,-6,23,6,0
9200,-1,7,4,-4,-10,0,15,3,0
9205,-3,-1,-7,-7,8,3,30,-2,0
9210,-6,-2,0,14,27,-1,2,-7,0
9215,-5,-7,-5,-8,-17,-18,-18,-1,0
9220,1,9,2,1,12,13,4,3,0
9225,6,6,7,3,25,-3,-40,-7,0
9230,-8,-5,-6,-4,-17,5,24,-5,0
9235,6,0,3,-1,41,6,-20,15,0
9240,6,0,-5,-6,-18,-11,-2,14,0
9245,-14,-7,-6,-3,-10,-4,-1,-19,0
9250,1,-3,1,11,7,-3,5,15,0
9255,0,-2,-6,-18,-34,-6,-2,-14,0
9260,-5,-5,-1,-1,-10,-5,-13,-10,0
9265,12,21,12,2,12,7,-17,6,0
9270,-1,0,1,3,-23,-7,-5,-14,0
9275,3,-4,-4,-17,4,12,28,9,0
9280,-6,-7,-8,-15,-9,-19,-5,9,0
9285,1,-2,5,12,-2,9,11,-13,0
9290,-16,-6,1,-5,-14,3,-8,-7,0
9295,1,7,4,-1,-24,-9,7,-4,0
9300,7,-2,-11,12,25,17,-14,15,0
9305,-9,-10,0,-7,-22,-13,-23,10,0
9310,10,4,-13,-10,12,3,9,6,0
9315,0,-2,32,26,-2,0,15,3,0
9320,-10,-18,-27,-19,1,-13,-45,-18,0
9325,-8,6,-25,-39,-15,12,31,3,0
9330,-3,-2,6,11,-6,-10,6,-13,0
9335,1,7,11,-6,7,-25,-51,11,0
9340,-3,-7,8,15,30,19,-11,-7,0
9345,5,3,-1,5,-16,-18,21,1,0
9350,-2,1,8,1,16,-7,-12,-19,0
9355,5,-2,-11,-3,-29,-6,11,35,0
9360,-7,-7,-1,-13,-3,8,-17,-20,0
9365,-1,-3,6,10,-1,-27,-36,-10,0
9370,3,4,-2,-11,-20,17,13,-19,0
9375,-4,-8,-7,12,8,12,16,23,0
9380,6,12,10,5,0,2,5,1,0
9385,-2,-5,7,28,25,-3,-6,-11,0
9390,-8,-2,-17,-46,-11,13,10,-11,0
9395,0,-1,-3,6,5,-8,-42,-8,0
9400,7,16,17,18,-68,-38,-44,2,0
9405,-11,-20,-25,7,111,60,62,-5,0
9410,1,1,9,10,-15,-24,-32,3,0
9415,-5,0,-4,-10,-37,-5,8,-3,0
9420,4,-10,-1,6,31,0,6,13,0
9425,-1,8,10,-9,-63,-20,-34,-25,0
9430,-2,-5,-11,1,19,2,-3,13,0
9435,2,0,-9,-2,22,-14,-26,-7,0
9440,-7,-2,3,2,-3,2,3,-1,0
9445,8,5,14,-8,-59,-16,-25,5,0
9450,-8,-10,-25,-13,90,34,22,-3,0
9455,7,13,22,28,-29,4,0,-2,0
9460,-2,-6,2,9,-42,-29,-10,2,0
9465,-3,-9,-33,-55,88,56,-5,3,0
9470,0,3,16,19,-97,-38,-16,8,0
9475,-4,-6,-3,20,66,7,7,-10,0
9480,1,3,-7,1,44,19,34,4,0
9485,-9,-6,7,3,-30,-13,-8,-13,0
9490,6,5,9,10,-37,-13,-16,18,0
9495,17,12,-6,-11,24,17,-5,14,0
9500,-4,11,3,-14,-32,11,30,-19,0
9505,2,-18,12,26,4,-37,-50,15,0
9510,0,-3,-5,-6,3,-2,13,-5,0
9515,-6,1,-22,-42,-10,20,34,-15,0
9520,-14,-14,-8,-3,25,4,-19,-2,0
9525,-5,7,1,-2,-68,-31,-6,-8,0
9530,3,4,-5,1,99,83,31,3,0
9535,-1,-12,-3,-12,-51,-1,19,30,0
9540,6,6,9,24,4,-13,4,-5,0
9545,-7,-6,-9,-22,-6,-1,-13,-1,0
9550,2,4,23,12,-64,-24,-24,-7,0
9555,-7,-1,-11,0,25,5,13,-27,0
9560,-3,-6,-8,-24,16,-6,11,0,0
9565,4,0,0,20,-1,-2,-3,18,0
9570,5,15,1,-5,-15,-17,-8,-2,0
9575,-7,-12,-3,0,-37,-8,-12,-12,0
9580,-9,-9,-12,-16,42,15,-38,-9,0
9585,1,2,13,19,-79,-23,-15,0,0
9590,-8,-19,-37,-49,79,33,28,3,0
9595,-12,-3,5,6,-20,-24,-6,-5,0
9600,4,6,6,6,-24,-7,-63,-30,0
9605,15,7,7,14,50,26,4,0,0
9610,-4,-1,-6,-8,-15,-19,-85,25,0
9615,-16,-13,5,4,-33,-40,-24,19,0
9620,14,11,-3,1,15,5,-35,-5,0
9625,-1,3,3,-4,23,17,-58,-22,0
9630,1,2,1,9,-30,-12,111,-8,0
9635,-5,-1,-7,-4,28,-1,64,-9,0
9640,-23,-25,-15,-24,-20,-2,22,13,0
9645,2,3,-5,3,30,17,28,-8,0
9650,2,-9,-8,-11,-33,-14,-15,-5,0
9655,-2,1,0,-16,-11,3,-18,-7,0
9660,19,14,7,15,19,15,40,28,0
9665,1,12,2,-8,37,28,26,11,0
9670,-6,-13,0,7,14,-23,-9,0,0
9675,7,9,11,22,-25,8,-31,-5,0
9680,-4,-4,-12,-20,-14,-1,6,-9,0
9685,-9,-15,-7,1,7,-3,-13,0,0
9690,0,1,3,-2,-2,-20,-13,5,0
9695,-5,-9,-3,10,49,9,-51,-6,0
9700,-2,6,3,-14,-46,-3,32,-3,0
9705,0,3,6,8,-25,-4,9,8,0
9710,3,-7,-13,-7,24,23,6,-5,0
9715,-10,-11,-13,-22,-8,0,13,-13,0
9720,3,6,11,9,-1,-11,-32,9,0
9725,14,16,13,21,0,-21,23,8,0
9730,2,7,15,14,3,9,-24,12,0
9735,-1,-5,-11,-11,6,4,6,-12,0
9740,-6,3,12,26,-14,-15,-16,-9,0
9745,-14,-18,-28,-64,28,29,38,-1,0
9750,-6,-4,3,4,-27,-23,2,-6,0
9755,12,7,-1,2,12,5,4,11,0
9760,1,10,11,3,4,1,-4,-1,0
9765,7,-1,4,8,14,15,-27,1,0
9770,-6,-5,-13,-8,-27,3,13,-5,0
9775,-4,-2,0,-6,-25,0,-46,-17,0
9780,7,0,3,7,45,-4,5,10,0
9785,3,12,13,-1,-59,3,-12,-5,0
9790,-8,-10,-3,1,-32,-19,-19,-7,0
9795,1,-2,-2,9,10,-21,-17,4,0
9800,-1,-3,-2,0,-8,13,-6,3,0
9805,-3,0,-3,5,18,4,8,-17,0
9810,-3,3,4,-13,-79,-24,-22,-17,0
9815,-1,2,7,3,63,5,-51,15,0
9820,2,-9,-7,-1,8,15,47,31,0
9825,-17,-13,-19,-29,-6,-25,9,-12,0
9830,12,12,9,18,19,19,-13,20,0
9835,9,7,5,0,-1,11,28,-14,0
9840,-8,-9,-20,-35,-25,-12,20,-12,0
9845,-10,-6,19,29,-6,-19,-34,-7,0
9850,0,4,6,3,17,-7,-54,-3,0
9855,0,-1,-15,-20,8,31,75,-12,0
9860,-10,-9,-5,-8,6,5,14,-6,0
9865,-1,16,8,17,-10,-27,-15,1,0
9870,1,-1,-1,-20,-31,-3,8,-5,0
9875,3,-2,9,28,26,0,19,22,0
9880,-4,-5,-14,-10,-15,-11,-35,-22,0
9885,0,-14,-38,-39,-37,2,28,-2,0
9890,-7,-1,8,-17,-43,0,-12,1,0
9895,-12,-11,-12,-18,2,-4,52,31,0
9900,-2,10,34,36,-14,-37,-74,-16,0
9905,-1,-9,-4,11,-12,-13,11,-2,0
9910,2,-1,-22,-14,30,13,40,-7,0
9915,-12,-11,2,4,-66,-21,-11,-27,0
9920,-3,-4,-5,-4,27,11,-20,5,0
9925,14,11,11,8,5,12,13,21,0
9930,14,13,11,23,20,-7,1,5,0
9935,-12,-11,14,27,69,33,11,-12,0
9940,-5,0,-10,-19,-118,-55,-61,-13,0
9945,8,-12,-21,-15,44,10,-13,48,0
9950,9,8,14,37,78,18,73,4,0
9955,-11,-4,-20,-67,-41,-18,-19,-10,0
9960,-8,-11,2,17,-60,-26,6,-12,0
9965,12,12,-6,-44,-36,23,5,16,0
9970,-4,-11,10,37,3,-12,-12,-5,0
9975,13,24,22,57,95,41,-17,3,0
9980,-7,-2,12,11,27,22,28,-5,0
9985,8,18,14,14,2,-7,-17,-40,0
9990,-8,-16,-12,9,3,14,46,22,0
9995,-6,-7,-6,0,-27,-18,-16,3,0
10000,-1,-2,-35,-68,53,42,78,18,0
10005,0,9,14,13,-52,-33,7,-12,0
10010,5,8,10,4,71,49,26,5,0
10015,3,-5,-8,-22,-54,-30,-47,0,0
10020,-11,-14,-10,-4,14,1,1,-14,0
10025,0,1,24,38,-98,-36,22,-9,0
10030,-13,-12,-30,-43,2,-13,-19,4,0
10035,1,7,0,25,45,33,12,6,0
10040,10,-3,-6,6,86,35,14,23,0
10045,-5,-4,12,20,-48,-20,0,-4,0
10050,-4,-1,10,9,-58,0,-13,-28,0
10055,-9,-17,-25,-51,-46,-23,6,21,0
10060,10,7,10,26,-1,26,11,9,0
10065,-7,4,-7,11,97,36,4,-7,0
10070,6,1,6,-5,-44,-21,-44,-7,0
10075,5,9,18,49,-3,-19,13,-7,0
10080,-1,-6,-4,-30,-62,-5,8,9,0
10085,-12,-19,-28,-45,-27,-7,-2,-1,0
10090,-1,4,8,2,-45,-16,-14,7,0
10095,-1,1,-8,-23,-2,25,7,-14,0
10100,4,16,26,40,-59,-48,-12,-10,0
10105,2,1,16,55,62,31,-13,12,0
10110,-9,-16,-38,-88,-42,-14,-6,3,0
10115,-3,-1,-18,-22,-60,-39,-21,-17,0
10120,-3,11,27,16,32,43,-19,-30,0
10125,-9,-2,25,45,-48,-18,-13,10,0
10130,-2,-24,-60,-24,81,33,22,33,0
10135,20,12,-13,-48,-100,-2,12,-27,0
10140,-15,-4,7,20,-1,-64,-57,13,0
10145,18,14,1,-45,79,28,42,-19,0
10150,-10,8,46,57,-23,54,29,1,0
10155,24,35,20,12,-85,-49,21,16,0
10160,9,5,1,22,5,4,-9,-15,0
10165,-37,-37,-31,-41,-31,-14,-73,-33,0
10170,3,-1,-10,-36,28,-8,31,-3,0
10175,-15,-11,6,3,-37,4,-49,-10,0
10180,15,18,37,83,31,10,-14,20,0
10185,-21,-22,-47,-39,-70,-22,25,-6,0
10190,15,8,-23,-48,20,12,-61,21,0
10195,-6,-15,-1,4,88,32,41,9,0
10200,15,13,17,4,24,6,3,1,0
10205,-9,-21,-29,-11,52,-3,-25,-11,0
10210,-11,-13,4,35,15,-5,-77,-33,0
10215,4,1,6,25,43,-11,16,27,0
10220,5,8,26,69,-46,-23,-12,-14,0
10225,-5,-10,-56,-81,65,-9,-49,31,0
10230,-3,-1,11,-1,20,37,7,-20,0
10235,5,-11,1,56,-63,-57,-10,32,0
10240,-11,3,-25,-89,86,-26,-32,3,0
10245,0,3,8,7,-43,21,59,15,0
10250,17,18,29,45,16,-44,-78,28,0
10255,-15,-11,-8,-1,67,54,24,-32,0
10260,4,-11,-26,-31,68,-16,-13,-7,0
10265,-11,-2,24,42,-41,-23,-18,-24,0
10270,-10,-3,1,5,-7,-25,28,-8,0
10275,-10,-4,2,1,-23,-4,-16,-24,0
10280,-22,-37,-38,-36,-88,2,-7,-5,0
10285,5,7,1,-18,74,1,-24,-22,0
10290,28,58,47,90,-106,-82,-68,26,0
10295,0,-14,-66,-93,114,106,81,-11,0
10300,-4,-15,-38,-15,68,28,-22,-2,0
10305,14,10,47,96,-58,-23,27,38,0
10310,-9,-21,-25,-64,1,-5,40,-29,0
10315,-12,7,8,-7,-111,-65,-31,-19,0
10320,-2,-8,-33,-37,7,54,15,-17,0
10325,-15,-9,3,26,6,18,-20,-17,0
10330,-3,12,-20,-91,85,37,12,-12,0
10335,27,0,5,24,50,-23,12,68,0
10340,12,28,45,38,-115,-62,-45,-47,0
10345,-12,-16,-18,-32,8,2,18,-16,0
10350,-19,-22,-10,25,7,56,38,15,0
10355,0,0,24,30,-70,-55,-76,-10,0
10360,-6,7,10,12,25,-8,-27,-8,0
10365,11,-10,-12,5,-103,1,74,53,0
10370,-14,-8,-32,-43,74,96,62,-32,0
10375,4,-1,19,24,-63,-30,-45,12,0
10380,-6,-10,-19,-42,-87,-3,20,23,0
10385,19,15,15,26,69,23,45,-16,0
10390,-9,-16,5,23,-85,-102,-115,40,0
10395,6,10,25,35,13,42,20,-24,0
10400,-15,2,-15,-36,-44,-6,42,-37,0
10405,-2,1,11,-5,-12,-1,-24,-18,0
10410,9,20,16,38,-2,-9,25,21,0
10415,-15,-20,-17,-20,31,17,44,-6,0
10420,18,5,8,-1,-31,46,62,39,0
10425,2,-13,2,21,101,-25,-64,11,0
10430,20,40,22,23,-32,-11,5,-22,0
10435,3,-4,-13,-41,-43,37,7,12,0
10440,-5,-6,8,32,90,85,42,-4,0
10445,-7,-8,3,-5,-18,6,-51,3,0
10450,-26,-32,-13,-13,-45,-38,-19,-29,0
10455,-17,6,2,3,-2,-11,-7,-20,0
10460,4,19,-5,1,2,4,-12,-11,0
10465,4,29,9,-33,-29,-24,-29,-51,0
10470,-33,-38,-7,31,6,-11,-9,47,0
10475,-2,-37,-11,35,41,16,-29,-54,0
10480,-7,-27,-47,-14,-43,-23,70,98,0
10485,34,36,-26,-100,55,43,-4,-22,0
10490,60,35,64,31,-55,30,70,20,0
10495,-13,-20,-51,5,95,53,47,38,0
10500,-19,-16,14,59,-49,-80,-30,-43,0
10505,4,-2,-27,-67,55,82,63,-12,0
10510,-4,-5,38,93,-34,-100,-119,-4,0
10515,-20,7,22,11,-7,3,-4,-58,0
10520,-32,-31,-12,-16,-29,-22,-1,-9,0
10525,10,44,23,23,-74,-29,-11,57,0
10530,-11,-23,-23,-35,44,28,-1,-39,0
10535,1,13,-8,-37,2,-22,-36,2,0
10540,16,-1,-11,-32,11,33,-4,14,0
10545,-5,-19,13,37,-6,-50,-103,8,0
10550,-1,7,-15,-20,32,22,-1,-20,0
10555,-4,8,6,-8,-39,-36,-28,-1,0
10560,17,6,3,-5,-32,-11,-2,25,0
10565,-13,-14,3,7,33,30,-86,-28,0
10570,-5,0,11,44,-52,-8,26,-4,0
10575,18,11,0,-11,40,-8,-24,27,0
10580,-19,-12,-10,-13,5,-29,-48,-32,0
10585,-21,-11,-9,2,10,-17,-63,-12,0
10590,15,-1,-9,-13,-62,-25,-24,12,0
10595,49,47,28,-7,12,20,37,32,0
10600,-1,8,8,-2,-2,-8,3,-17,0
10605,-5,-14,5,30,-30,-10,14,8,0
10610,-27,-30,-25,-31,7,-5,-15,-50,0
10615,-10,-8,-3,-1,-10,-16,-47,-13,0
10620,6,17,1,-9,21,0,13,8,0
10625,-10,-10,6,12,-31,-4,-12,3,0
10630,10,3,-5,-5,50,8,12,8,0
10635,-11,-2,-1,-6,-22,-21,-6,-9,0
10640,9,5,0,3,5,5,4,-2,0
10645,-20,-10,18,37,-70,-57,-41,-12,0
10650,3,-4,-45,-56,116,104,45,22,0
10655,19,12,17,13,-18,-35,-7,-23,0
10660,2,4,15,22,-6,23,37,-27,0
10665,-11,-20,-24,-20,13,-20,20,36,0
10670,26,16,10,5,-26,1,-7,33,0
10675,-16,-22,5,2,-27,-8,33,-32,0
10680,2,-1,2,-2,33,19,-42,6,0
10685,19,25,13,4,-31,-19,40,-31,0
10690,-27,-16,-3,1,-13,18,27,-6,0
10695,1,-6,-10,-4,32,-21,-48,33,0
10700,-3,-9,6,11,6,-3,16,-7,0
10705,-6,0,-5,0,14,21,9,2,0
10710,10,0,-11,-20,-26,-9,27,25,0
10715,-5,-2,6,11,-17,-20,-1,-12,0
10720,-7,6,-2,-5,22,27,-36,0,0
10725,9,14,14,9,-17,-1,36,7,0
10730,-6,-3,0,4,6,-16,5,-49,0
10735,-11,-11,-3,5,34,6,-60,31,0
10740,-4,-5,-11,-4,34,16,47,9,0
10745,-2,-9,-14,8,18,13,12,14,0
10750,3,-3,4,-17,-36,-28,-10,-18,0
10755,-4,0,2,10,27,41,26,2,0
10760,2,11,1,-9,-20,-13,0,0,0
10765,-11,-6,3,7,13,-9,-79,-34,0
10770,-11,-4,2,1,-20,-43,2,24,0
10775,19,16,5,5,14,43,58,10,0
10780,-3,-7,-4,-4,12,15,43,-30,0
10785,-4,-7,-13,-21,-37,-58,-60,64,0
10790,-5,4,13,-5,-65,-11,10,-42,0
10795,-12,0,-14,-11,45,23,28,5,0
10800,-19,-8,-8,-12,-5,-33,-39,-20,0
10805,16,-3,2,19,18,61,32,7,0
10810,33,36,11,12,45,6,9,84,0
10815,5,-10,-13,-30,-2,19,6,-25,0
10820,13,17,24,21,-6,-11,-33,-3,0
10825,1,9,-9,-23,22,46,36,-38,0
10830,-25,-17,-12,2,4,-25,-63,-7,0
10835,2,-3,10,4,-50,-18,13,-2,0
10840,-3,-7,-6,-1,-3,7,18,15,0
10845,-15,-4,-7,-11,-11,-19,40,-42,0
10850,13,-6,-4,11,24,-2,-22,54,0
10855,-5,-11,-21,-25,-39,-27,-23,14,0
10860,-3,-5,14,7,-4,7,33,-18,0
10865,19,22,9,-12,-71,-28,-15,26,0
10870,2,-3,-1,2,43,21,97,-11,0
10875,-19,-10,-1,11,-14,-23,-33,-12,0
10880,-19,-15,-9,-5,-7,-23,-27,-18,0
10885,5,1,-9,-10,-8,13,24,20,0
10890,-5,6,2,-4,-17,-7,-20,-39,0
10895,0,37,13,11,18,6,-22,-2,0
10900,23,-35,-8,-2,-30,8,34,49,0
10905,-3,-1,8,23,43,20,32,-37,0
10910,5,15,12,8,-1,-10,24,-12,0
10915,-25,-19,-6,-10,-5,-21,-15,-19,0
10920,-18,-4,-20,-19,-6,11,-4,2,0
10925,15,10,9,-2,-1,8,-28,3,0
10930,15,-15,-7,0,-16,0,3,65,0
10935,2,4,13,20,-10,-7,39,-16,0
10940,0,16,10,13,-3,-3,5,-10,0
10945,-6,-12,-5,-7,17,7,-8,-8,0
10950,-22,-10,-7,-12,-50,-9,-40,-39,0
10955,4,11,4,5,-7,-30,-14,21,0
10960,-11,-9,-10,-5,21,42,4,-42,0
10965,7,-20,-11,2,4,-44,-11,88,0
10970,10,7,-3,-4,-9,3,-55,-59,0
10975,-17,-29,-6,16,0,0,-19,-18,0
10980,1,24,24,35,26,-23,-47,-37,0
10985,-22,-20,-60,-77,43,51,70,7,0
10990,18,4,9,-36,-105,-7,-3,8,0
10995,-1,-10,-24,-45,-59,47,36,-12,0
11000,5,13,12,29,78,-5,39,37,0
11005,0,-2,31,71,34,-4,-5,-19,0
11010,-20,-3,-5,10,29,-12,-14,-23,0
11015,13,-6,-12,-4,6,19,6,18,0
11020,-12,-13,-1,-24,-103,-70,-118,50,0
11025,-6,11,15,15,-3,11,48,-23,0
11030,-7,1,-9,3,61,33,20,-35,0
11035,1,5,2,-10,-39,-33,-29,-8,0
11040,25,6,-6,-17,-5,17,15,92,0
11045,13,9,4,-6,-33,-17,-23,-22,0
11050,-22,-12,9,39,16,1,-24,-43,0
11055,-19,-14,-8,2,35,5,-1,-24,0
11060,28,21,-7,-30,-16,4,14,22,0
11065,20,18,20,25,-1,-7,9,49,0
11070,-2,0,3,2,-27,-15,-6,12,0
11075,-5,-14,-1,17,49,6,2,13,0
11080,-6,-8,-17,-45,-57,-4,32,-51,0
11085,-16,0,10,15,-15,-13,-62,-3,0
11090,8,-7,-11,-5,34,35,24,0,0
11095,-21,-9,-6,-12,-51,-36,-6,-35,0
11100,0,-2,-10,16,69,-2,-7,49,0
11105,11,-8,-14,-25,45,25,52,-19,0
11110,-6,-2,9,10,3,-7,-52,28,0
11115,23,20,7,-2,38,40,99,10,0
11120,-2,7,13,13,-16,-27,-25,-30,0
11125,-29,-14,-6,-18,-85,-47,-37,-71,0
11130,-8,-30,-28,4,94,42,6,29,0
11135,6,12,12,-3,-6,-21,-27,17,0
11140,17,23,14,9,21,29,-16,-31,0
11145,6,-5,-3,-5,-45,1,26,26,0
11150,-22,-12,-10,-16,-19,-19,-13,-17,0
11155,-13,1,6,-2,-43,-30,-90,-30,0
11160,-14,-17,-20,4,70,26,9,-6,0
11165,12,14,19,8,-7,4,1,26,0
11170,12,10,5,-11,-14,-15,26,-22,0
11175,-10,-19,-9,5,22,9,17,12,0
11180,-10,-5,-4,-8,-51,-11,17,5,0
11185,13,15,1,-4,40,12,38,3,0
11190,22,12,16,27,14,-16,-73,31,0
11195,7,8,8,1,-13,10,-5,-36,0
11200,2,-1,3,2,2,0,7,-1,0
11205,-34,-26,-17,-4,12,0,-18,-39,0
11210,-14,1,-5,-29,-39,-25,37,-29,0
11215,3,4,-5,1,25,7,-26,24,0
11220,5,1,-5,-2,-3,2,8,10,0
11225,4,-8,1,-3,-20,-12,-38,7,0
11230,-4,-2,5,10,-12,-4,-3,-7,0
11235,8,15,0,-16,-29,-4,0,0,0
11240,-15,-9,1,2,-11,1,5,-30,0
11245,12,-6,-9,-7,26,20,28,65,0
11250,-1,20,16,20,-25,-5,-13,-30,0
11255,1,-5,-14,-21,12,25,26,-7,0
11260,16,-1,15,36,19,-20,24,53,0
11265,-4,6,1,-15,-25,0,24,-22,0
11270,-13,-7,-2,-6,-16,-1,-12,14,0
11275,-1,3,4,7,19,7,21,23,0
11280,-12,-4,-3,1,-30,7,-42,-56,0
11285,4,-3,1,17,58,21,12,27,0
11290,26,15,8,-6,-5,7,46,7,0
11295,3,2,3,8,-7,-10,-8,2,0
11300,-2,-4,-1,7,5,5,4,-5,0
11305,-25,-10,-2,16,-11,-15,-28,-41,0
11310,-16,-19,-30,-49,-14,2,0,9,0
11315,25,22,19,18,-9,-18,-59,56,0
11320,18,10,4,4,6,-2,6,11,0
11325,-23,-9,-5,-15,-26,-29,-85,-65,0
11330,-12,-4,0,17,18,15,11,16,0
11335,3,1,0,23,54,5,3,-15,0
11340,-13,-26,-37,-88,-80,-18,8,-2,0
11345,29,18,10,16,51,15,12,61,0
11350,-9,-1,5,8,-8,-14,-37,-46,0
11355,-13,-17,-11,-14,-16,-3,10,-5,0
11360,4,21,15,10,-18,3,-15,-10,0
11365,-1,-10,-6,1,19,0,57,14,0
11370,-2,-18,-8,-8,-1,-25,-59,22,0
11375,5,12,2,2,-2,-5,24,-8,0
11380,-5,4,7,14,-4,3,13,-5,0
11385,-4,-7,-16,-49,-41,-6,23,5,0
11390,-2,4,-1,14,44,11,27,-2,0
11395,4,3,3,4,-10,-7,-20,5,0
11400,-8,-13,-9,-9,1,-1,-12,-5,0
11405,-2,-2,2,9,-14,-7,-17,4,0
11410,13,13,9,10,25,13,41,-2,0
11415,-20,-23,-21,-44,-46,-28,-52,32,0
11420,4,-10,-7,-6,12,9,21,19,0
11425,6,7,5,8,-30,-9,0,-19,0
11430,10,7,4,16,33,9,21,34,0
11435,-7,-2,15,14,-15,-1,-5,-57,0
11440,-10,13,7,16,68,29,23,-8,0
11445,-3,-18,-22,-19,17,-32,-119,56,0
11450,6,6,7,-11,-37,1,11,-16,0
11455,-8,-10,-5,9,-15,1,38,-7,0
11460,-5,-9,-6,-8,2,12,1,18,0
11465,13,16,10,2,-3,12,28,-29,0
11470,-1,-1,5,2,-8,1,-10,-2,0
11475,-3,-4,-6,1,18,5,24,2,0
11480,-11,-19,-7,5,-9,-13,-22,-3,0
11485,8,17,11,12,0,-2,11,6,0
11490,-5,-4,-4,-17,-27,0,1,-35,0
11495,13,5,-1,-8,-6,3,34,60,0
11500,1,-11,-10,-12,-19,-22,-4,-9,0
11505,-11,1,11,23,20,15,-4,-17,0
11510,-1,6,-3,-8,3,0,9,-8,0
11515,-13,-8,-9,-5,0,1,-45,-31,0
11520,9,7,12,21,18,7,2,5,0
11525,-2,-4,-9,-19,-13,1,9,-2,0
11530,-7,-10,-13,-3,30,2,-6,-4,0
11535,-3,4,-6,-10,2,6,5,-20,0
11540,8,4,7,12,-3,-16,20,28,0
11545,-5,-2,5,7,34,-2,-16,-27,0
11550,16,7,6,11,0,5,-20,15,0
11555,-1,-14,-7,-9,15,1,4,6,0
11560,-9,3,11,12,6,-5,0,-11,0
11565,-8,-9,-4,1,-21,3,20,19,0
11570,14,16,3,-9,-12,3,4,-1,0
11575,-4,-12,-6,-4,13,7,10,-9,0
11580,-9,-1,-6,-14,-22,-27,-120,-7,0
11585,-5,9,11,12,-11,6,16,-31,0
11590,-23,-21,-8,-12,-30,-42,-42,-1,0
11595,10,8,3,5,9,20,11,4,0
11600,15,5,-4,-1,-4,14,43,12,0
11605,1,-14,-25,-20,1,1,-1,19,0
11610,-4,1,7,14,13,-8,-25,0,0
11615,25,23,25,17,0,0,8,-5,0
11620,-15,-8,-5,0,3,-3,-3,-16,0
11625,-5,1,1,-13,-42,-13,-15,-17,0
11630,1,1,-5,-1,-16,12,46,18,0
11635,-4,-8,-10,-8,28,18,-16,-6,0
11640,-10,-15,-14,-9,3,-21,-54,5,0
11645,7,1,10,12,-10,-1,13,2,0
11650,-26,-25,-16,-4,-5,-7,-1,-10,0
11655,24,38,16,0,-11,0,15,11,0
11660,-13,-6,0,7,25,17,21,-50,0
11665,6,-9,-7,-2,5,-5,-40,47,0
11670,19,6,5,-3,-2,3,3,3,0
11675,-29,-25,-15,-9,-35,-19,-16,-20,0
11680,4,10,6,-7,-3,13,65,-14,0
11685,-9,-10,-10,9,31,-12,-17,14,0
11690,10,11,4,2,-6,33,111,-26,0
11695,-18,-16,-11,-11,-31,-46,-14,28,0
11700,0,6,4,-8,-2,0,25,11,0
11705,-5,-4,-6,3,-12,12,27,-29,0
11710,-7,1,-12,-37,-19,-5,-5,13,0
11715,13,3,2,8,8,4,-2,15,0
11720,11,2,4,-5,-27,-2,-9,4,0
11725,2,10,12,27,28,-2,-1,-12,0
11730,-2,5,-8,-26,7,5,-18,9,0
11735,2,-11,-9,-13,-12,0,10,23,0
11740,1,5,8,6,-5,7,9,24,0
11745,0,5,6,11,6,1,-54,-32,0
11750,-10,-5,1,10,-4,-14,-3,-26,0
11755,-7,-4,1,7,1,3,3,-8,0
11760,9,-1,-9,-16,3,16,21,13,0
11765,-1,-2,-1,-10,-30,-4,81,-17,0
11770,-15,-13,-8,9,18,-19,-70,34,0
11775,-1,-5,-1,4,30,5,27,-8,0
11780,3,9,9,7,-10,-5,-18,-17,0
11785,-11,-8,-5,-13,-16,6,51,0,0
11790,0,-7,-8,-6,-37,-11,-32,10,0
11795,5,5,-2,7,38,10,5,2,0
11800,-14,-13,-11,2,48,37,47,-26,0
11805,3,3,3,-11,-26,-20,-22,18,0
11810,10,6,3,6,4,-13,3,2,0
11815,-12,-2,0,-7,-23,0,-37,-40,0
11820,2,8,-11,-20,-16,-15,-16,12,0
11825,13,7,-2,6,18,13,26,30,0
11830,-2,-8,-1,5,1,11,18,-21,0
11835,8,9,9,4,4,5,38,-1,0
11840,6,5,11,4,-24,-19,-36,1,0
11845,-3,-2,0,-6,-7,-8,-1,7,0
11850,-7,-4,-9,-10,-4,-4,-4,-9,0
11855,2,0,2,7,0,-3,41,9,0
11860,-6,-4,1,3,-28,-28,-53,-11,0
11865,-4,-4,-3,7,54,14,1,4,0
11870,3,3,3,-4,-18,-1,19,2,0
11875,-14,-7,-3,-4,-15,-12,-22,-25,0
11880,3,2,-1,1,5,5,-4,23,0
11885,13,2,1,-10,-30,-2,-9,5,0
11890,-4,-11,-3,11,19,-1,-13,-3,0
11895,-8,-5,-7,-9,-10,2,5,-14,0
11900,6,6,7,16,32,3,-13,4,0
11905,0,-6,-9,-26,-16,17,0,-26,0
11910,-9,0,-5,5,5,-4,7,-14,0
11915,-2,-8,-7,-14,-31,-6,-20,9,0
11920,7,-2,-10,-11,4,21,31,-7,0
11925,-15,-7,6,12,-6,-25,-32,-20,0
11930,-3,-3,1,14,24,1,-2,1,0
11935,11,12,9,8,-7,-1,-54,21,0
11940,-1,1,7,10,6,-15,-18,-17,0
11945,-3,6,9,10,-10,3,25,-18,0
11950,3,1,-5,-22,-20,-4,-17,-14,0
11955,1,0,4,1,-7,-15,9,24,0
11960,-9,-12,-6,3,21,14,17,11,0
11965,-2,-3,-8,-9,-25,-10,-9,-8,0
11970,2,4,3,-1,17,8,-6,-9,0
11975,-2,-5,-5,9,20,4,18,-8,0
11980,-6,-7,-13,-29,-21,-5,-4,-8,0
11985,-5,0,3,9,4,2,10,-3,0
11990,2,-1,2,1,-1,5,-3,10,0
11995,8,9,6,-2,-6,4,11,-2,0
12000,3,1,0,5,2,2,4,17,0
12005,0,-3,-4,0,14,2,-19,-7,0
12010,-11,-2,7,4,-11,-8,-5,-16,0
12015,2,-1,-7,-5,6,10,52,4,0
12020,18,3,-8,-3,-8,-8,6,36,0
12025,-12,-17,0,-10,0,4,-4,-11,0
12030,-8,-2,-1,9,10,0,-3,-4,0
12035,2,10,3,-9,-5,4,25,-16,0
12040,-15,-13,-2,3,-5,-17,-52,-5,0
12045,7,-2,-7,4,3,-5,17,22,0
12050,13,14,10,15,-5,14,40,14,0
12055,-12,-12,-10,-29,-65,-19,-40,-27,0
12060,0,-8,-10,-7,20,15,42,2,0
12065,-10,-1,1,-2,9,0,-1,-11,0
12070,-11,-11,-6,0,-5,-2,-27,4,0
12075,-3,5,6,9,2,-12,-25,3,0
12080,0,3,3,-7,-7,8,13,-29,0
12085,4,4,0,-9,-12,-8,8,21,0
12090,1,-1,-3,-5,16,14,-8,7,0
12095,1,-3,4,14,17,-13,-26,11,0
12100,6,4,5,2,-15,-6,17,5,0
12105,19,11,5,11,37,20,11,3,0
12110,7,16,12,11,-20,2,16,8,0
12115,-11,-13,-5,7,41,15,3,-10,0
12120,-25,-14,-10,-10,-20,-14,-63,-27,0
12125,11,18,7,-1,-1,-11,-21,-1,0
12130,0,-6,-2,1,2,7,6,1,0
12135,-9,-3,-6,-1,17,18,49,-22,0
12140,3,-1,-4,-9,-30,-12,14,34,0
12145,1,-3,-3,21,71,25,17,12,0
12150,-5,-7,-12,-10,-20,-11,-21,-19,0
12155,0,-1,-5,-3,-7,12,4,4,0
12160,5,7,14,13,21,-5,-1,0,0
12165,3,2,2,8,-8,-4,-35,33,0
12170,0,-5,-7,-18,-11,-6,10,-12,0
12175,1,3,3,12,19,0,-5,-9,0
12180,-6,-6,-8,-26,-17,3,-2,-8,0
12185,-19,-14,-3,-6,-20,-12,-14,-11,0
12190,8,17,8,5,18,1,6,10,0
12195,8,4,3,2,-8,-4,-53,5,0
12200,-6,-5,-2,4,7,4,25,-2,0
12205,0,1,1,5,2,-7,-5,3,0
12210,-2,-9,2,-5,-9,-3,-63,25,0
12215,1,-2,-6,-14,-25,-19,-11,3,0
12220,-3,1,-4,5,30,19,28,-27,0
12225,-4,0,2,1,-11,-10,-46,-24,0
12230,7,3,-3,-11,2,-3,36,8,0
12235,2,0,1,14,15,11,12,3,0
12240,-9,-4,-1,-7,-24,-12,-17,-15,0
12245,-10,-5,-8,-12,-16,-6,10,-18,0
12250,-3,-9,-5,3,4,2,-6,-1,0
12255,-4,-6,-3,-5,-7,0,0,-24,0
12260,-2,9,8,10,8,-4,2,9,0
12265,5,-1,-4,-10,-31,-2,-18,14,0
12270,-11,-11,-9,-8,35,10,8,-41,0
12275,-7,-3,-6,-6,-10,-10,9,16,0
12280,11,13,7,9,5,8,-20,-6,0
12285,8,5,5,0,-9,-6,-5,4,0
12290,-4,-8,-6,-12,-13,-8,-59,-4,0
12295,-12,-6,2,12,7,-17,-9,-9,0
12300,-2,-5,-8,-18,4,1,2,-3,0
12305,5,3,6,18,0,-1,-5,2,0
12310,1,-1,-5,-8,-10,17,44,-2,0
12315,-12,2,7,4,9,9,-2,-15,0
12320,-6,-4,-1,10,-10,-13,-26,14,0
12325,15,0,-12,-20,0,17,50,21,0
12330,3,5,-1,5,-8,-17,-8,-2,0
12335,-10,-10,-5,-13,-25,-5,1,2,0
12340,18,17,11,10,11,11,33,12,0
12345,-8,-4,9,5,7,-10,-39,-13,0
12350,-5,-2,-2,2,-1,-3,-13,-13,0
12355,6,0,-5,-21,-23,1,26,13,0
12360,-15,-14,-6,-14,-30,-11,-30,-27,0
12365,-5,1,1,12,31,5,2,-10,0
12370,-1,0,1,2,-11,4,33,9,0
12375,0,-1,7,20,17,-6,-22,-5,0
12380,-4,-4,-5,2,10,7,13,-1,0
12385,-10,-6,-13,-46,-52,-11,7,8,0
12390,6,7,3,13,14,-8,-7,-12,0
12395,8,2,4,-8,-9,11,26,10,0
12400,4,3,-10,-8,14,-6,-16,9,0
12405,-3,-4,-4,-6,-41,4,1,-3,0
12410,-12,-8,-4,2,18,-1,21,-23,0
12415,17,-1,0,9,-3,-7,-12,66,0
12420,-4,-2,1,7,6,-5,-4,-22,0
12425,-16,-6,-7,-3,3,-9,-19,-24,0
12430,0,1,2,-4,-16,5,14,7,0
12435,-3,-2,-17,-44,-12,3,-3,-10,0
12440,-4,-7,1,-2,-5,-11,-8,5,0
12445,-1,1,0,19,20,2,9,3,0
12450,4,0,6,27,35,-2,5,19,0
12455,-13,-7,-3,-7,-13,-7,-57,-25,0
12460,11,9,-2,-8,-10,22,49,20,0
12465,10,11,11,8,4,-29,-77,-11,0
12470,-4,-7,5,9,3,-10,-1,-15,0
12475,-5,1,-5,0,22,-8,-13,0,0
12480,11,-2,7,29,20,3,7,18,0
12485,6,-11,-13,-46,-35,9,14,12,0
12490,-1,3,1,4,-10,7,-10,11,0
12495,-1,-1,-8,-43,-31,-4,6,-18,0
12500,-12,2,1,7,14,7,-40,-12,0
12505,-7,-17,-8,14,17,1,25,-2,0
12510,8,12,10,-1,-18,-7,12,19,0
12515,-6,-17,-7,25,13,-1,13,-6,0
12520,5,15,5,-19,-9,5,12,3,0
12525,1,-2,-5,7,9,15,18,-24,0
12530,1,0,0,-8,0,-5,32,18,0
12535,8,42,29,33,10,1,11,-6,0
12540,-9,-42,-6,10,-13,-10,3,2,0
12545,-17,0,-4,-8,4,2,6,-21,0
12550,3,1,-12,-28,-6,-1,-11,3,0
12555,18,17,4,3,15,12,10,17,0
12560,2,-3,6,27,-3,-10,4,3,0
12565,7,6,3,-14,6,8,2,6,0
12570,1,-6,0,1,-34,-2,-9,-14,0
12575,-7,-11,-3,8,-15,-7,-12,-8,0
12580,-15,-10,-27,-44,-5,0,5,-19,0
12585,-9,-11,0,28,17,-4,-11,-6,0
12590,-5,-2,-13,-29,-6,-3,3,5,0
12595,-3,-6,-1,7,6,7,15,-5,0
12600,8,5,8,12,-1,2,46,-14,0
12605,-9,-1,-2,-6,-19,-34,-42,35,0
12610,1,-6,6,19,22,6,10,3,0
12615,-8,9,10,6,-1,2,-3,-1,0
12620,0,-2,0,-7,-10,3,11,2,0
12625,9,-7,2,-3,14,11,24,-1,0
12630,-1,-6,0,9,14,-2,-14,-8,0
12635,-5,-3,9,2,-77,-42,-19,-13,0
12640,-11,7,-20,-31,92,53,18,-5,0
12645,-5,-1,2,11,18,9,19,4,0
12650,1,-1,4,6,-22,-15,-29,22,0
12655,8,-6,-9,15,52,16,28,1,0
12660,1,5,15,6,-95,-43,-39,-18,0
12665,-15,-13,-16,-18,36,7,-11,-27,0
12670,2,11,3,2,12,0,4,0,0
12675,-5,-9,-13,-23,-15,8,30,-4,0
12680,1,-7,2,8,-18,-6,17,29,0
12685,2,7,3,6,17,27,33,21,0
12690,1,-1,-2,-7,-22,-6,26,-21,0
12695,2,-5,-1,0,6,-3,-43,-2,0
12700,-6,-2,-4,-7,-6,-8,-21,-21,0
12705,-18,-13,-6,-3,-22,-33,-16,-10,0
12710,3,-7,-15,-9,22,21,17,51,0
12715,2,2,10,8,-14,-10,15,-7,0
12720,-2,-4,-2,1,30,12,-21,5,0
12725,22,20,9,-12,-7,2,-2,-10,0
12730,3,4,-5,-4,-2,-10,-17,16,0
12735,-3,-2,17,21,-38,-7,-7,9,0
12740,11,10,-6,-14,7,27,51,-32,0
12745,-18,-18,-6,5,-8,-8,-1,39,0
12750,12,1,12,31,-1,7,-45,30,0
12755,-5,-1,-14,-1,22,-21,-6,-15,0
12760,9,-1,14,32,2,-4,-3,22,0
12765,3,6,-1,-31,-34,-11,-10,-27,0
12770,-19,-1,22,66,22,-37,-17,-27,0
12775,30,7,-10,-12,80,77,8,55,0
12780,-36,-27,-22,-41,-70,-47,-20,-30,0
12785,3,-7,9,28,10,-15,-94,27,0
12790,67,54,44,25,37,60,39,-4,0
12795,-23,-24,-10,14,-8,-36,-24,-2,0
12800,-16,-5,-12,-37,-31,-9,-16,-9,0
12805,-5,-2,8,19,-15,-30,-37,-31,0
12810,9,4,-7,-10,16,18,10,30,0
12815,0,10,4,-7,-26,-18,-5,-27,0
12820,-7,-12,-10,5,-11,-13,-11,31,0
12825,8,-3,-4,-36,-47,3,36,0,0
12830,12,5,6,18,33,24,8,-6,0
12835,-4,-2,6,7,33,-5,7,1,0
12840,-9,-4,-5,10,-17,-16,-25,-16,0
12845,4,4,-9,-33,-17,34,68,-19,0
12850,10,5,24,82,112,-2,-24,18,0
12855,1,-14,-32,-76,-66,18,39,2,0
12860,-21,-18,-29,-60,17,22,3,-17,0
12865,0,8,22,36,-18,-35,-46,-1,0
12870,-5,-7,-12,1,27,12,-19,10,0
12875,14,13,18,31,4,-13,-4,15,0
12880,-5,-12,-12,-31,-59,-14,7,0,0
12885,7,6,-2,-4,-4,8,28,-6,0
12890,1,0,-3,2,-5,28,-51,-9,0
12895,-17,-15,-6,0,30,1,16,15,0
12900,20,40,8,-13,13,7,8,6,0
12905,1,-24,-2,6,-4,5,7,0,0
12910,5,14,17,39,11,-3,13,-13,0
12915,-10,-14,-4,3,-48,-25,-34,-30,0
12920,-15,-15,-32,-66,78,6,-33,11,0
12925,-4,7,0,-35,-60,-8,33,-3,0
12930,-13,-4,-13,-36,-23,-33,-43,-8,0
12935,5,-5,-1,15,46,1,-2,8,0
12940,-7,-9,6,11,-29,-18,50,-3,0
12945,-2,9,13,66,31,31,-24,-40,0
12950,-6,-10,-5,-22,-60,-47,-45,4,0
12955,-8,-5,-38,-41,13,41,46,-20,0
12960,19,2,16,40,-43,12,-2,41,0
12965,4,3,5,-6,28,-2,-17,-31,0
12970,2,4,5,11,-46,-1,27,29,0
12975,7,-2,-15,-47,-15,8,-4,-14,0
12980,-5,2,5,21,18,-5,0,-15,0
12985,-6,-1,-4,1,66,2,5,12,0
12990,7,4,9,10,-35,10,4,14,0
12995,-6,-12,11,35,39,-21,-25,9,0
13000,-15,-11,-14,-19,-8,37,80,1,0
13005,4,8,12,-4,-36,-24,-11,21,0
13010,10,7,2,-4,6,13,11,-10,0
13015,6,11,27,49,9,-31,-62,5,0
13020,-11,-25,-54,-102,42,5,-39,-15,0
13025,-5,-11,-2,82,26,61,127,64,0
13030,7,9,-4,-38,3,17,-21,-18,0
13035,5,5,34,52,-32,-9,-25,8,0
13040,-9,1,-5,-9,-55,-39,-117,-30,0
13045,-15,-3,-18,-29,29,-43,-22,-18,0
13050,-15,-26,-43,-38,17,9,51,-2,0
13055,23,17,13,19,23,32,78,41,0
13060,-4,-2,25,44,-17,-24,-76,-25,0
13065,-9,-5,1,5,-42,-27,-9,-24,0
13070,-12,5,5,-5,45,22,32,-61,0
13075,-2,-11,-28,-49,43,-49,-105,41,0
13080,7,0,-2,-6,-2,27,127,28,0
13085,4,-2,-6,-9,42,-5,-42,-15,0
13090,3,16,18,18,-3,-21,6,-11,0
13095,-26,-10,-5,5,-18,15,101,-49,0
13100,1,5,8,10,-34,8,-2,25,0
13105,12,9,5,2,52,-15,-61,-10,0
13110,7,-6,-5,-17,-44,-14,-38,42,0
13115,13,1,-10,-11,22,35,56,-1,0
13120,1,-6,1,8,21,13,-36,20,0
13125,-15,-11,-4,-3,-50,-25,-12,-14,0
13130,-9,2,9,26,-8,-6,-27,-10,0
13135,-11,1,-5,-17,-5,9,-7,-23,0
13140,3,-8,1,-11,-58,-22,-6,-10,0
13145,5,-1,-4,-19,-83,-8,-38,18,0
13150,0,-8,-7,-19,82,-10,-32,5,0
13155,-9,9,-3,-15,-66,-16,-28,-16,0
13160,20,17,24,46,40,22,1,-2,0
13165,-5,-8,-16,-41,35,-9,-14,-4,0
13170,-8,-7,3,-11,-91,-9,-14,-9,0
13175,-12,-6,3,18,-38,-34,-25,-3,0
13180,11,-6,-32,-62,59,57,72,26,0
13185,-1,-4,8,17,-28,11,10,-10,0
13190,2,1,3,1,-37,-37,-14,-8,0
13195,2,-3,-6,15,51,61,-5,10,0
13200,-20,-15,-17,-17,-28,-34,-1,-38,0
13205,-12,-7,3,9,-14,0,-21,-15,0
13210,13,9,-8,-21,20,24,28,5,0
13215,24,16,32,35,-28,30,12,11,0
13220,-11,-17,-29,-24,69,12,-17,7,0
13225,1,7,11,14,-24,-20,6,-2,0
13230,-28,-29,-33,-32,69,-25,-46,-3,0
13235,8,6,8,5,-28,-20,-15,8,0
13240,1,11,18,24,4,29,-9,-30,0
13245,-11,-4,-11,-19,36,23,71,33,0
13250,6,0,2,9,16,49,21,-21,0
13255,15,13,8,-8,-13,-17,-44,5,0
13260,-6,2,7,10,-7,-39,-64,-21,0
13265,6,-6,-14,-10,-34,-15,-12,-16,0
13270,-2,6,17,26,-23,-2,-5,35,0
13275,-7,-14,-26,-38,11,-14,-5,-41,0
13280,5,6,19,34,-9,21,12,8,0
13285,-3,4,0,-7,-27,-34,-35,17,0
13290,1,-4,5,21,22,20,24,-8,0
13295,-1,2,7,14,-4,-13,-15,2,0
13300,-2,0,-16,-61,18,25,22,7,0
13305,-5,-8,-7,-13,17,34,45,11,0
13310,0,-5,1,-4,-12,-1,-13,0,0
13315,-2,10,3,-6,-14,-17,0,-7,0
13320,-5,-8,8,41,-24,-19,-18,-6,0
13325,6,8,-5,-13,-17,-24,-61,-4,0
13330,-14,-12,-16,-5,-5,-19,8,-10,0
13335,-10,7,-2,-1,-4,-2,-55,-11,0
13340,-30,-54,-24,16,-34,-31,-8,-17,0
13345,3,-11,-5,-12,-19,-2,-24,18,0
13350,22,13,-7,-10,10,24,26,-5,0
13355,9,1,11,6,11,-7,14,11,0
13360,10,34,15,3,-12,-17,-4,-9,0
13365,-1,-16,5,26,23,29,64,13,0
13370,-12,-15,-3,0,-9,-2,2,6,0
13375,-5,9,1,-13,2,1,21,-4,0
13380,-5,4,0,-4,-27,-18,-6,-2,0
13385,-10,-6,4,7,-28,-6,-16,-60,0
13390,2,9,5,7,8,-16,12,69,0
13395,9,6,-11,-12,-2,15,54,4,0
13400,6,-7,27,35,-55,13,14,0,0
13405,10,27,21,39,34,-15,-34,-21,0
13410,9,-8,-31,-49,73,64,-1,15,0
13415,-14,-16,10,33,14,-4,62,2,0
13420,-1,-1,9,20,-69,-51,-67,-16,0
13425,-16,-9,-11,-4,11,13,1,13,0
13430,-2,0,1,6,0,-17,-13,3,0
13435,11,3,-2,-44,-16,10,-43,6,0
13440,2,8,-14,-5,42,4,-10,5,0
13445,-16,-10,1,8,-38,-1,101,-12,0
13450,3,8,7,11,-10,-6,-12,1,0
13455,2,-5,-9,-11,2,-4,-15,4,0
13460,-5,-2,0,1,18,8,54,6,0
13465,-5,6,3,-20,-16,-6,-20,0,0
13470,17,29,16,3,-13,1,23,-16,0
13475,0,-2,-3,3,0,9,-6,8,0
13480,3,-5,-3,-5,-10,-1,-8,-16,0
13485,9,-7,-8,-3,26,10,-23,13,0
13490,-9,1,13,21,-88,-31,-28,-17,0
13495,-20,-11,-9,-3,19,-20,-21,-45,0
13500,-10,-1,-22,-32,74,21,15,17,0
13505,18,12,6,-5,29,8,-57,22,0
13510,-2,-2,6,-2,-59,-21,8,-6,0
13515,2,0,-3,-3,-7,-6,-28,7,0
13520,-6,-3,-6,-1,52,48,-17,-12,0
13525,-6,-3,-6,5,-7,-10,-2,-7,0
13530,5,-6,-15,-27,1,29,50,6,0
13535,0,-11,-9,-8,-15,5,15,28,0
13540,-7,3,8,6,1,-13,-41,-17,0
13545,10,15,24,25,-17,-13,-50,-22,0
13550,4,-13,-22,-21,-9,-30,-67,21,0
13555,-11,-13,-18,-31,-11,-13,25,-18,0
13560,0,6,9,25,21,-17,-6,-5,0
13565,-8,-6,-12,-11,-15,-4,-27,-1,0
13570,-10,0,29,66,5,-34,-53,-23,0
13575,-9,-19,-59,-75,63,59,38,5,0
13580,8,5,9,22,-18,-38,3,14,0
13585,0,1,5,32,8,9,22,6,0
13590,4,6,9,-10,-3,5,7,-3,0
13595,2,5,15,29,-33,-19,-22,2,0
13600,-1,5,-4,-18,-24,0,-10,-5,0
13605,-1,-7,-12,-44,18,-18,-65,-5,0
13610,-12,-10,-13,-11,-43,-19,1,-5,0
13615,2,3,12,22,-11,16,27,7,0
13620,-4,-6,-7,-11,-56,-13,-48,-9,0
13625,25,11,-10,-28,-11,14,71,57,0
13630,15,13,33,63,-4,56,52,-6,0
13635,-14,-9,9,24,39,-31,-84,-20,0
13640,-8,-6,-11,-10,89,-3,49,4,0
13645,-10,-11,-9,-10,-42,30,118,4,0
13650,-2,-5,-2,6,-8,-18,15,5,0
13655,5,5,6,16,8,14,-41,0,0
13660,16,24,29,-29,-128,-10,8,-18,0
13665,-29,-30,-36,-2,56,-41,-44,30,0
13670,9,8,14,28,21,-4,-22,5,0
13675,-8,-28,-49,-70,69,40,68,44,0
13680,17,22,15,9,-120,-58,-91,19,0
13685,8,0,1,16,69,54,19,-18,0
13690,2,3,14,21,29,-31,-95,-17,0
13695,-3,6,15,37,18,-26,-47,-45,0
13700,-17,-17,-3,14,-4,-27,-38,13,0
13705,-2,7,-2,-54,-60,12,24,-6,0
13710,3,5,-3,-21,-33,-16,-43,-36,0
13715,-9,-2,12,33,-54,-14,76,6,0
13720,-6,-12,-22,-6,127,36,-10,9,0
13725,8,14,31,45,-65,-7,-66,-11,0
13730,16,3,-16,-34,30,15,83,30,0
13735,0,0,-2,-4,-27,26,-35,-23,0
13740,10,-6,-6,-20,-33,-26,7,36,0
13745,5,15,19,18,-31,-20,-21,-33,0
13750,-33,-30,-21,-7,-63,-25,-32,45,0
13755,13,19,43,104,8,27,9,6,0
13760,-18,-23,-44,-48,98,39,12,-34,0
13765,-20,-7,-4,-48,50,56,28,-41,0
13770,10,-2,-4,-11,-8,-47,-15,35,0
13775,4,4,9,18,-50,-15,29,35,0
13780,35,15,11,20,-20,75,102,-12,0
13785,-27,-21,-12,10,-39,-62,-79,-25,0
13790,-30,-20,-29,-34,35,23,-29,-43,0
13795,-8,-23,-21,-20,13,18,66,57,0
13800,-10,5,26,30,-113,-55,-35,-24,0
13805,-15,-23,-64,-92,117,16,37,-15,0
13810,4,-4,-8,19,114,67,10,23,0
13815,10,1,5,1,7,-22,15,35,0
13820,23,16,18,-9,-38,-3,13,-1,0
13825,-5,-1,7,6,-109,-37,-57,60,0
13830,3,6,7,-21,-25,34,15,-17,0
13835,-6,-7,-3,-10,-11,-12,-11,21,0
13840,-4,8,14,9,-64,-16,-2,-23,0
13845,0,1,-4,-9,-16,-32,-84,-22,0
13850,-9,4,-6,20,-29,-67,35,-15,0
13855,1,-4,-9,1,34,25,0,-29,0
13860,-9,-6,1,8,-12,-25,-94,7,0
13865,-8,-7,-4,4,-34,-28,-67,-19,0
13870,-16,-13,-25,-61,-19,-6,-7,12,0
13875,7,0,-3,-10,-32,-13,-56,23,0
13880,10,18,23,51,-22,-47,-87,-80,0
13885,35,2,-28,-19,127,95,81,106,0
13890,7,8,27,8,-89,-9,5,-38,0
13895,-18,-13,-43,-90,71,-9,-63,-29,0
13900,-17,-5,-3,-26,3,19,-1,1,0
13905,-3,0,13,40,64,58,87,-23,0
13910,-33,-21,-2,25,-45,-79,-12,6,0
13915,2,5,4,9,13,-44,25,-45,0
13920,6,-3,-5,-8,-61,-43,-52,30,0
13925,3,5,8,28,-24,-18,99,-6,0
13930,0,3,-12,-26,71,45,-32,-20,0
13935,-21,-1,16,19,-85,-25,-19,-37,0
13940,-6,-9,-13,-3,106,46,16,21,0
13945,42,25,24,2,-57,-32,-59,21,0
13950,-10,-10,-3,4,-16,13,8,-26,0
13955,-4,6,5,3,-15,-15,-66,-23,0
13960,-11,-16,-17,12,42,32,127,37,0
13965,4,0,6,10,7,-40,-85,3,0
13970,17,9,-3,3,49,34,1,-2,0
13975,-36,-18,-6,-19,-33,-6,-30,-37,0
13980,-2,-11,-11,-16,-86,-22,20,66,0
13985,62,32,27,20,39,26,26,35,0
13990,5,12,19,54,-55,-52,46,-20,0
13995,0,-20,-32,-20,115,45,7,13,0
14000,-18,-12,-1,22,-29,-26,-30,-6,0
14005,-29,-9,7,6,-84,-7,-19,-28,0
14010,-2,-2,1,2,-24,-11,23,-3,0
14015,5,12,14,1,-68,-6,-49,-17,0
14020,7,-6,-13,9,89,58,96,42,0
14025,7,7,6,14,9,-20,-13,-3,0
14030,16,49,9,-21,26,74,51,6,0
14035,10,4,17,4,-42,-22,-68,-2,0
14040,-2,-1,-18,-17,59,0,-35,-23,0
14045,-25,-15,-4,-8,-23,-5,4,-21,0
14050,-15,-31,-15,-9,31,7,-60,-5,0
14055,29,23,10,-27,-108,-19,40,27,0
14060,-2,1,1,-7,16,-17,-50,-3,0
14065,-8,-3,-3,-7,-36,3,-11,-18,0
14070,-1,-8,-7,-1,31,1,-3,4,0
14075,5,6,-1,1,24,19,28,5,0
14080,6,-2,6,1,-4,20,0,0,0
14085,-9,2,1,5,-20,-38,-71,-16,0
14090,2,-5,-5,-8,2,22,74,13,0
14095,6,1,1,14,30,15,25,12,0
14100,-5,1,11,8,-3,-16,-18,-8,0
14105,-14,-12,-16,-24,-50,0,15,-30,0
14110,2,2,1,3,8,-5,-19,22,0
14115,0,1,6,17,53,-3,-52,-11,0
14120,-8,-7,-14,-27,-22,-3,1,-8,0
14125,13,16,26,51,19,-4,33,11,0
14130,13,2,3,-3,-13,11,5,15,0
14135,-3,-1,-6,-21,9,15,14,-1,0
14140,-7,-1,-1,12,16,-7,-13,-15,0
14145,-12,-9,-8,-22,2,11,12,3,0
14150,7,6,7,9,-3,7,-8,12,0
14155,0,-7,0,8,-15,-14,-4,-8,0
14160,-3,2,-1,-9,5,-1,-20,-14,0
14165,-11,-10,-13,-17,4,8,14,-8,0
14170,3,3,0,-15,-5,-12,-26,2,0
14175,14,11,16,34,-27,-7,30,29,0
14180,-6,-6,-7,-5,46,-1,-1,-6,0
14185,-10,-12,-9,-5,-18,-11,7,-22,0
14190,-8,-2,8,3,21,-13,-41,9,0
14195,6,-7,-5,13,-4,9,-4,-24,0
14200,9,9,-6,3,-30,-11,-15,9,0
14205,14,14,18,41,78,-3,-49,21,0
14210,-11,-22,-18,-27,-38,-7,-4,-22,0
14215,-11,-6,-10,-49,18,-5,-24,-2,0
14220,-8,-9,-12,-2,-9,4,33,-10,0
14225,-6,-3,8,27,-43,-21,-73,-12,0
14230,0,-7,-25,-32,79,27,14,7,0
14235,1,10,16,44,68,-19,-37,0,0
14240,2,-9,-9,-32,-71,-2,2,18,0
14245,7,20,16,5,1,15,17,-1,0
14250,5,5,16,46,-14,-22,-59,-4,0
14255,-23,-16,-40,-87,33,18,8,-36,0
14260,3,1,9,23,74,1,24,22,0
14265,13,0,1,0,-5,15,-32,33,0
14270,-3,-9,-5,-6,-2,20,9,-8,0
14275,5,3,9,16,-33,-15,-20,-6,0
14280,13,26,19,10,2,17,1,3,0
14285,-4,-4,4,3,4,-6,-16,-1,0
14290,-2,-6,-28,-74,-12,27,79,-2,0
14295,-7,-4,16,36,-91,-24,-29,1,0
14300,-10,-11,-11,-20,-57,-33,-36,-22,0
14305,1,5,11,22,-57,-26,10,-4,0
14310,0,2,-5,-35,54,20,-73,-18,0
14315,2,8,19,46,-82,-44,-52,10,0
14320,0,-7,-13,13,77,65,57,7,0
14325,-7,-14,-22,-42,-25,11,-34,12,0
14330,-4,4,22,54,-15,-22,29,-5,0
14335,6,-8,-16,-24,7,37,46,36,0
14340,-3,0,9,23,2,-22,-44,-28,0
14345,2,5,-5,-35,65,11,-5,-10,0
14350,2,1,11,30,-18,-1,2,13,0
14355,-14,-1,-13,-33,-12,-27,-8,-38,0
14360,-2,-1,8,-4,-95,13,39,16,0
14365,-10,-22,-34,-18,85,51,65,-2,0
14370,4,7,14,23,-79,-53,-53,-1,0
14375,8,9,3,21,49,41,94,9,0
14380,-2,-10,1,2,-7,-36,-75,-6,0
14385,-9,21,6,6,-20,-1,40,-13,0
14390,0,-2,2,-6,-10,2,18,-4,0
14395,-5,-2,0,22,-4,-27,-39,11,0
14400,8,0,-31,-81,27,57,32,11,0
14405,7,-11,-12,-50,-16,6,92,9,0
14410,1,-3,2,23,40,1,17,12,0
14415,-8,-5,1,-2,-44,-3,-22,2,0
14420,-4,-1,3,7,100,13,-54,-24,0
14425,-11,-2,7,12,-51,-40,-17,-16,0
14430,0,-2,-21,-57,-5,9,-50,-1,0
14435,-9,-5,1,2,15,6,33,-14,0
14440,9,12,27,33,-128,-44,-26,15,0
14445,-1,-15,-19,-3,111,-16,-16,-3,0
14450,-3,5,14,25,-43,-11,-107,-17,0
14455,4,2,-4,3,60,20,67,10,0
14460,-9,-1,13,43,-38,5,-13,-13,0
14465,11,13,16,15,-57,-42,-38,3,0
14470,3,-7,-29,-42,88,81,64,18,0
14475,1,-7,-12,-22,-7,-45,-62,-8,0
14480,-10,-6,1,9,0,-8,-10,-22,0
14485,-3,4,0,9,-23,12,-10,-9,0
14490,-7,-6,7,33,-20,-32,-20,-5,0
14495,4,0,-12,-19,36,32,5,11,0
14500,2,2,-4,-13,26,-17,0,-2,0
14505,-7,-8,8,33,-75,-21,-25,-3,0
14510,-12,3,-5,-1,-89,20,102,4,0
14515,-10,-10,-11,-6,48,18,-42,-33,0
14520,33,10,0,-31,-18,-31,-76,82,0
14525,24,14,6,7,-17,18,-58,4,0
14530,-4,-6,16,38,7,-16,40,-15,0
14535,-7,-8,-2,-32,-58,7,-3,-5,0
14540,-26,-18,-8,7,-58,-13,32,-36,0
14545,1,0,6,15,61,18,4,18,0
14550,-2,2,-7,-32,-52,-23,6,-8,0
14555,15,9,19,69,82,14,-58,24,0
14560,-8,-2,-20,-73,27,5,17,-26,0
14565,-13,-5,-6,-6,-19,45,10,1,0
14570,9,-4,2,12,-113,-67,-22,11,0
14575,7,12,13,22,20,32,17,-12,0
14580,4,-3,-10,-9,10,2,8,16,0
14585,-17,-15,-13,-9,-7,-41,-23,-21,0
14590,-13,-22,-15,9,43,20,17,-1,0
14595,-3,0,7,1,-88,-39,-50,-7,0
14600,1,6,-5,5,45,26,-11,-5,0
14605,2,10,1,-18,-8,-13,-10,-6,0
14610,-4,-6,3,2,48,5,-45,-11,0
14615,-9,0,-10,-26,-26,-5,19,-3,0
14620,-12,-15,-1,12,-4,-23,5,2,0
14625,15,18,43,82,-44,-44,-46,-4,0
14630,1,-12,-70,-77,106,98,45,3,0
14635,-3,1,5,2,-98,-29,11,10,0
14640,-7,-3,-2,1,24,-11,-32,-13,0
14645,-5,-6,-4,-15,36,14,17,-1,0
14650,5,12,24,21,-26,-22,-26,-8,0
14655,7,1,-2,4,46,3,-2,18,0
14660,-3,-2,-3,-3,8,1,-5,1,0
14665,1,-1,-10,-38,-14,0,-2,-10,0
14670,-1,7,30,78,26,-35,-31,-10,0
14675,-8,-21,-68,-119,76,59,71,8,0
14680,6,11,24,47,-10,9,-2,6,0
14685,-6,-10,-14,5,29,6,-14,-1,0
14690,4,10,12,13,-21,-6,-30,-1,0
14695,-2,6,23,26,-95,-38,-46,-8,0
14700,-11,-14,-29,-33,6,5,60,-8,0
14705,0,-3,-5,-13,15,22,-25,0,0
14710,-6,-3,1,2,67,-9,-21,-10,0
14715,5,1,11,22,12,-18,-35,12,0
14720,7,6,11,15,3,14,34,6,0
14725,6,1,5,14,-46,-3,10,-6,0
14730,0,0,6,-4,-45,-19,-22,-3,0
14735,-4,-4,0,20,-5,-9,11,-14,0
14740,-8,2,1,4,14,9,-43,-4,0
14745,-6,-6,-1,-21,-78,-23,7,1,0
14750,6,2,4,20,36,-2,-2,5,0
14755,-5,-3,-15,-77,-2,9,16,-4,0
14760,-3,3,9,41,17,-8,17,-15,0
14765,-2,1,1,10,46,-4,-16,20,0
14770,4,4,0,-15,-34,22,34,3,0
14775,3,6,22,52,-12,-22,-20,-8,0
14780,-7,-2,-4,-18,-51,-20,-33,-37,0
14785,2,0,-11,-17,30,9,46,39,0
14790,5,-2,-3,-7,-19,-30,-29,22,0
14795,7,-1,2,16,18,15,18,-8,0
14800,4,17,20,42,31,0,-31,-11,0
14805,-21,-19,-38,-67,-40,9,14,-22,0
14810,-3,-3,-3,-25,12,-5,-2,25,0
14815,-2,-2,-1,0,-22,32,50,2,0
14820,3,-5,-1,-20,-27,-17,-30,8,0
14825,5,7,21,54,60,10,6,1,0
14830,-3,-7,-16,-14,-5,11,-7,-14,0
14835,1,1,4,-6,-14,-53,-57,6,0
14840,-4,-8,-24,-57,-40,-1,11,-16,0
14845,0,-7,-9,-14,25,40,18,15,0
14850,-1,-6,-9,-28,-29,2,-14,-22,0
14855,-2,0,3,26,35,-18,0,2,0
14860,-1,4,4,2,15,22,-35,2,0
14865,4,5,2,7,-30,-26,5,-10,0
14870,-7,-7,-3,4,5,9,-1,-12,0
14875,-1,3,-4,-8,-7,11,-12,17,0
14880,11,5,7,6,16,-8,0,11,0
14885,-7,-7,-5,13,76,22,26,-14,0
14890,-4,7,10,-12,25,20,9,-8,0
14895,-1,-6,-19,-34,-35,10,19,12,0
14900,-5,-9,-8,-8,-20,-14,9,-2,0
14905,-17,-12,-3,4,1,0,-2,-7,0
14910,9,12,16,19,13,-21,-12,19,0
14915,9,8,-1,-7,-39,9,26,10,0
14920,-1,4,0,21,30,28,5,2,0
14925,-20,-26,-6,-18,-30,-16,-29,-8,0
14930,9,6,25,44,-96,-22,-25,-1,0
14935,21,8,1,-5,50,46,35,20,0
14940,-11,-8,-14,-12,-66,0,-36,-4,0
14945,9,14,11,1,-56,-48,-18,-4,0
14950,-18,-16,-14,9,25,31,34,-3,0
14955,-3,4,22,50,-19,-32,-55,-11,0
14960,-1,0,-2,-7,-11,-5,-11,-4,0
14965,1,6,1,-4,-12,11,9,-12,0
14970,2,3,2,0,10,-12,-12,17,0
14975,-1,-4,-4,-12,-7,7,4,-8,0
14980,-6,-6,-2,18,37,-2,-8,-18,0
14985,1,-7,-8,-12,10,-3,-30,9,0
14990,13,9,-5,-20,-55,-18,13,10,0
14995,-11,-2,5,27,90,66,-3,-23,0
15000,-2,-17,-11,-1,46,-7,33,13,0
15005,3,11,10,7,-96,-13,-8,2,0
15010,-12,-8,-14,-11,63,9,8,-11,0
15015,-10,-4,5,6,-42,-47,-41,-4,0
15020,17,11,22,34,-11,-21,-6,4,0
15025,-2,3,-11,2,88,36,8,-9,0
15030,5,-1,-1,-2,1,-8,16,5,0
15035,-4,5,-8,-29,-40,-31,-2,-30,0
15040,-2,-3,2,2,14,3,-11,-1,0
15045,-2,-6,-9,-16,-13,-21,-12,-14,0
15050,4,6,8,4,-25,14,-2,17,0
15055,-6,-11,-25,-33,56,11,-8,-13,0
15060,-5,-8,-10,-20,-30,-15,2,11,0
15065,9,7,21,17,35,24,-2,1,0
15070,-5,2,2,6,-69,-22,-9,-22,0
15075,-1,-1,15,39,-87,-45,-12,19,0
15080,-13,-19,-24,-51,16,35,40,-2,0
15085,-6,-11,-13,4,36,-8,-16,4,0
15090,13,16,26,22,-8,-4,-19,-3,0
15095,-8,-11,-7,-2,-18,-20,-4,-7,0
15100,6,1,1,-2,-45,-28,-35,16,0
15105,-1,0,6,16,29,21,6,-5,0
15110,-9,-4,-13,-24,61,11,-13,-8,0
15115,0,3,3,-9,17,-29,-26,-11,0
15120,5,7,11,12,22,18,33,13,0
15125,-4,-3,-5,-10,-23,-6,-15,-8,0
15130,-9,-10,-12,-9,-6,-10,-11,0,0
15135,-5,-7,4,17,12,8,-3,1,0
15140,15,15,11,-15,-22,-9,-26,-1,0
15145,5,0,-5,-17,-45,4,6,15,0
15150,-12,-10,-11,-24,-36,-8,2,-18,0
15155,-6,-7,-19,-24,59,32,45,4,0
15160,1,4,9,34,3,-6,-33,1,0
15165,-3,-2,-12,-24,67,19,-16,-14,0
15170,3,2,-3,-23,12,-8,-14,20,0
15175,6,8,17,32,-26,12,-4,-9,0
15180,-10,-9,-12,-3,0,4,35,-2,0
15185,-1,-1,0,1,-14,-31,-27,4,0
15190,-3,-4,-3,3,26,11,-11,-13,0
15195,1,6,6,0,-17,-17,-23,3,0
15200,-2,-2,-6,-8,41,21,26,-2,0
15205,-1,-2,9,25,-38,-17,-12,6,0
15210,4,-1,-4,-11,42,34,23,7,0
15215,0,0,2,-1,-7,-12,-28,-2,0
15220,-3,0,1,15,-20,46,20,2,0
15225,4,-5,-5,-24,-33,-29,15,14,0
15230,-3,1,11,44,-13,-5,-3,-8,0
15235,-4,-6,-22,-51,34,40,16,4,0
15240,-5,3,8,20,62,-26,-22,-17,0
15245,-4,-1,-11,-49,-56,3,-31,-1,0
15250,0,-5,-10,-1,20,-1,14,-2,0
15255,4,0,6,16,-13,27,66,22,0
15260,0,1,7,4,-25,-37,-46,-6,0
15265,0,-3,-9,-3,-17,-5,3,5,0
15270,5,12,15,32,81,26,-27,-6,0
15275,-3,-4,-8,-30,0,11,21,-12,0
15280,5,1,-3,-10,-14,7,13,5,0
15285,1,3,15,44,-17,-14,-3,-3,0
15290,2,3,-10,-16,59,35,14,16,0
15295,-10,-12,-15,-31,-73,-25,21,-7,0
15300,0,0,-3,-8,-1,-11,-13,-3,0
15305,11,14,15,11,9,29,7,1,0
15310,-10,-9,2,14,-6,-32,-50,-16,0
15315,8,5,1,-10,-20,-17,-13,8,0
15320,-8,-9,-15,-26,-22,-3,-12,-8,0
15325,0,7,8,18,27,21,25,-2,0
15330,-8,-13,-6,1,-61,-23,-9,3,0
15335,-2,8,14,41,-13,-35,-35,-12,0
15340,-5,-9,-24,-35,80,20,10,12,0
15345,9,12,16,38,-46,-28,23,5,0
15350,-8,-12,-12,-4,37,15,21,-15,0
15355,1,-1,-6,-6,34,7,-28,-1,0
15360,15,10,16,-11,-32,0,-2,25,0
15365,-1,-12,-11,-1,59,2,6,-7,0
15370,-1,7,1,-16,-41,-14,-9,-16,0
15375,2,15,44,88,-65,0,-25,-14,0
15380,-11,-10,-28,-57,26,-5,-47,-1,0
15385,-7,-9,-12,-7,54,34,-6,-6,0
15390,-1,-5,-1,-9,-68,5,27,1,0
15395,-4,5,-1,0,61,-29,-64,10,0
15400,8,11,20,39,-61,12,89,-6,0
15405,-9,-6,-13,-33,-31,-14,-34,-10,0
15410,-2,-2,-6,-11,-36,-35,-49,-3,0
15415,5,-4,-2,3,31,25,34,10,0
15420,-2,0,17,42,-67,-21,-31,-16,0
15425,-5,-5,-18,-53,120,31,43,4,0
15430,-5,-4,-1,0,-54,-14,-11,2,0
15435,9,-1,-15,-36,48,32,43,20,0
15440,-10,-10,-23,-37,74,42,-20,-14,0
15445,-5,-5,4,14,-101,-31,0,2,0
15450,2,1,-11,-16,68,-11,-35,12,0
15455,4,-2,0,-2,33,6,-5,12,0
15460,7,8,17,38,3,5,12,-7,0
15465,4,5,12,6,-35,4,-44,-13,0
15470,3,6,6,2,13,-5,22,11,0
15475,-10,-9,-25,-22,12,-4,-23,-15,0
15480,-7,-1,4,34,-106,-16,0,-10,0
15485,-7,-13,-11,27,10,-17,-45,1,0
15490,2,5,14,38,-54,-21,10,8,0
15495,-9,-9,-4,-17,-1,20,26,-14,0
15500,4,4,11,3,-11,-4,-36,12,0
15505,-6,-5,-10,-7,-72,-39,-12,-19,0
15510,4,8,1,-27,-41,32,29,5,0
15515,3,-6,-7,14,-20,-56,9,7,0
15520,-6,0,2,0,10,-7,14,-9,0
15525,10,7,10,0,-44,-15,25,17,0
15530,-4,-5,1,16,31,-5,21,-4,0
15535,-11,-10,-10,-12,-23,4,-14,-16,0
15540,-1,-9,-16,-22,-14,-6,-13,4,0
15545,-8,-3,12,20,8,-11,9,12,0
15550,15,15,6,4,12,27,-19,2,0
15555,12,8,0,-15,46,43,16,-1,0
15560,-18,-14,-19,-30,-59,-14,-3,-19,0
15565,-7,-7,-20,-58,109,75,13,-17,0
15570,-9,-11,-12,-40,-90,-61,-5,-11,0
15575,1,-9,-8,0,37,16,25,48,0
15580,4,9,18,37,12,-7,12,-16,0
15585,11,16,17,14,-63,3,24,-3,0
15590,-3,-4,-10,-13,-7,3,-36,-12,0
15595,0,2,6,11,-37,-12,-14,-8,0
15600,-1,-1,3,7,-9,-28,-14,7,0
15605,-6,-8,-14,-28,-15,13,15,0,0
15610,-11,-6,2,30,46,14,-8,-16,0
15615,-7,-6,2,0,-78,-26,-18,-3,0
15620,15,20,15,40,67,11,-19,23,0
15625,2,-4,-30,-89,-7,21,8,-9,0
15630,-5,-4,10,23,9,8,49,7,0
15635,-17,-11,-8,-23,-26,4,20,-17,0
15640,-10,-2,5,11,2,29,36,-14,0
15645,0,-2,3,23,-70,-48,-34,28,0
15650,2,-2,-14,-23,43,18,26,-23,0
15655,1,-1,2,24,27,28,-37,29,0
15660,7,-2,5,8,2,-59,-35,2,0
15665,-4,-3,3,29,-31,-12,-20,-14,0
15670,0,1,2,0,-7,-9,-19,-1,0
15675,-1,9,10,10,-60,-3,-29,-3,0
15680,6,-7,-23,-32,32,46,90,-1,0
15685,-16,-10,-4,13,1,-32,-44,8,0
15690,-1,-4,2,2,-9,-11,-12,-16,0
15695,-3,8,6,21,-54,-33,-25,-23,0
15700,7,1,-12,-11,69,59,29,20,0
15705,7,8,17,33,19,7,-12,-12,0
15710,-8,-8,-21,-50,-52,16,-8,2,0
15715,-1,6,1,-10,-12,-39,-65,-23,0
15720,1,-6,-3,24,46,-45,-58,15,0
15725,10,15,-7,-57,46,28,71,1,0
15730,-16,-18,-19,-52,-36,-2,-14,-2,0
15735,17,13,19,23,4,-2,-53,27,0
15740,1,9,3,-8,-24,-3,-41,-16,0
15745,9,-1,10,43,-14,-15,-22,-9,0
15750,-3,2,18,44,25,-9,-15,6,0
15755,-7,-16,-29,-56,77,25,42,-19,0
15760,-8,1,12,5,-62,-18,-13,-5,0
15765,-3,-3,-6,16,18,-4,-12,2,0
15770,9,6,4,8,3,12,7,4,0
15775,4,1,16,33,-51,-21,18,1,0
15780,1,2,2,12,-19,9,-12,-5,0
15785,-9,-4,1,5,55,0,26,-2,0
15790,-4,-10,-25,-24,34,-5,15,12,0
15795,4,6,14,31,26,14,-28,-11,0
15800,-8,-1,6,-29,-123,-35,23,-2,0
15805,0,-6,-20,-41,80,29,3,12,0
15810,6,5,15,33,-35,6,16,0,0
15815,-5,1,7,3,0,-8,28,-12,0
15820,-9,-13,-2,0,-31,11,-46,-16,0
15825,-4,-2,3,12,-27,-2,-28,9,0
15830,8,5,-5,-6,95,19,6,-2,0
15835,-7,-10,-15,-16,-61,-32,8,1,0
15840,-6,-6,-6,-14,18,18,18,8,0
15845,10,4,8,12,14,-1,-10,-4,0
15850,11,14,30,58,-39,-17,-13,1,0
15855,-13,-15,-36,-63,18,9,18,-20,0
15860,-9,-7,-9,-22,0,-11,-27,6,0
15865,-1,-2,6,32,25,4,53,2,0
15870,-11,-8,-8,-51,-3,-7,-30,-3,0
15875,14,15,-5,-3,23,29,46,18,0
15880,5,12,16,31,81,11,17,-11,0
15885,-10,-17,-37,-105,-14,24,-6,-5,0
15890,-6,-9,4,19,11,-4,-6,-2,0
15895,12,17,11,-22,6,11,20,14,0
15900,0,-2,-2,28,30,-11,-18,-10,0
15905,2,2,10,-10,-54,20,-8,-4,0
15910,-6,-12,-16,-15,15,-26,-18,6,0
15915,-10,-7,7,23,-47,-18,-5,-8,0
15920,4,0,-5,-18,-25,2,-16,1,0
15925,-2,4,-4,-15,28,66,22,-7,0
15930,10,8,10,3,-74,-40,-54,18,0
15935,-4,-7,-3,14,35,8,18,0,0
15940,-5,-4,-4,-18,-32,-14,-19,-10,0
15945,-6,2,5,17,5,-10,-14,-6,0
15950,4,7,-2,8,28,13,2,-5,0
15955,1,-2,-2,-30,1,-3,-29,5,0
15960,-2,-10,-34,-70,50,88,122,17,0
15965,-8,-9,2,10,-67,-40,-17,-1,0
15970,3,8,11,27,22,19,20,-1,0
15975,5,2,16,23,-23,26,-11,18,0
15980,1,5,11,24,-26,-29,-44,-15,0
15985,7,10,10,31,20,-13,-35,10,0
15990,-4,-3,-9,-19,-36,8,28,-9,0
15995,-9,-7,-14,-24,70,36,19,-20,0
16000,6,2,4,-2,-2,-13,-45,10,0
16005,-4,-6,-11,-2,3,-23,-3,-12,0
16010,-4,-3,-4,-7,-19,-7,34,20,0
16015,-5,1,7,26,-46,-38,-23,-15,0
16020,12,12,9,23,25,-10,-9,-2,0
16025,-7,-14,-21,-33,5,1,-6,-9,0
16030,-6,6,6,1,-34,-8,-44,-27,0
16035,0,-3,-13,-35,8,23,-1,-4,0
16040,-9,-9,-16,-30,22,-5,-9,-4,0
16045,2,5,14,19,-25,18,-23,-33,0
16050,5,7,16,24,-50,20,90,13,0
16055,15,7,2,11,-11,20,48,-44,0
16060,-11,-13,2,20,-32,-46,10,49,0
16065,0,0,4,36,-6,-30,14,30,0
16070,-2,-6,-25,-44,26,8,18,-25,0
16075,-8,-5,6,15,-71,-33,3,12,0
16080,5,7,-13,-23,35,41,32,-19,0
16085,0,0,10,5,-75,1,19,2,0
16090,7,1,-5,-3,-29,0,-4,25,0
16095,0,0,9,15,-38,-30,-36,9,0
16100,-11,-13,-23,-65,-47,-10,-40,-25,0
16105,-4,7,23,49,-76,-65,-80,-2,0
16110,-7,-10,-11,19,43,4,-58,-5,0
16115,-11,-9,-9,-9,21,19,28,-8,0
16120,-10,-2,13,34,-92,-49,-54,-2,0
16125,7,3,-6,-19,-5,7,40,-4,0
16130,17,7,16,15,-21,-11,-28,20,0
16135,-11,-8,-1,23,66,-26,-35,-19,0
16140,7,1,8,17,-97,1,-3,9,0
16145,-1,-9,-24,-22,71,33,17,23,0
16150,-5,-4,-10,-32,-15,-5,16,-5,0
16155,-5,-2,-5,-11,-19,-26,-23,7,0
16160,-8,-4,6,19,-35,-9,3,-18,0
16165,6,7,12,17,41,8,-14,-8,0
16170,-5,3,0,-18,24,17,-46,-11,0
16175,-1,-9,-10,7,-16,-1,36,27,0
16180,9,2,-3,-28,37,9,-3,-12,0
16185,-4,1,9,25,-7,6,-31,7,0
16190,-11,-8,-17,-29,15,-19,-20,-20,0
16195,-6,-5,-9,1,37,12,-13,2,0
16200,7,11,9,7,9,1,-34,-29,0
16205,-17,-25,-20,-17,53,-5,42,16,0
16210,1,6,19,15,-46,-30,-34,-4,0
16215,7,6,2,17,-3,30,18,5,0
16220,-10,-14,-18,-12,35,-24,5,-9,0
16225,13,14,16,31,-28,-13,-15,3,0
16230,10,7,4,35,80,51,6,22,0
16235,-5,-7,-8,-20,-1,-23,-7,-24,0
16240,-3,-5,-14,-55,10,8,43,12,0
16245,-1,6,20,43,-111,-7,10,-12,0
16250,-15,-12,-12,-2,0,-16,-19,-12,0
16255,2,-1,-8,-14,3,21,-13,24,0
16260,0,7,22,54,-9,-9,-29,20,0
16265,4,9,5,-6,-45,-17,-45,-31,0
16270,5,-3,-19,-26,102,18,26,16,0
16275,5,8,2,-16,14,30,37,-54,0
16280,-27,-36,-36,-32,-19,-59,-68,54,0
16285,1,4,2,-1,59,56,21,-11,0
16290,-5,-4,-5,-13,-63,-32,-15,-13,0
16295,2,4,6,11,24,-3,-16,15,0
16300,8,9,11,25,12,30,72,-6,0
16305,-5,-5,-15,-33,19,-7,-15,-4,0
16310,3,4,17,15,-18,12,-11,7,0
16315,6,9,19,30,-82,-34,0,22,0
16320,24,10,-5,-21,68,30,60,-32,0
16325,-16,-19,-21,-14,-19,-6,-5,62,0
16330,-4,-3,-11,-39,2,10,-16,-34,0
16335,-9,-3,3,3,21,-10,4,1,0
16340,-5,3,6,12,-4,-46,-15,12,0
16345,2,5,6,15,6,-3,4,-16,0
16350,-2,-1,1,7,36,36,31,-7,0
16355,-3,-6,-12,-17,-19,-25,-27,7,0
16360,-6,2,4,12,-14,6,-23,-32,0
16365,5,-3,-19,-60,58,25,33,16,0
16370,-2,2,10,20,-54,-23,-50,-16,0
16375,-6,-4,-7,-11,-19,0,7,-15,0
16380,16,8,2,13,42,45,41,28,0
16385,-6,1,6,12,-35,-35,-41,-28,0
16390,0,0,6,7,-81,-2,9,9,0
16395,8,0,-6,-22,44,-21,17,3,0
16400,-3,5,18,21,-17,-4,18,-6,0
16405,-13,-10,1,6,-20,-26,-100,10,0
16410,2,-5,-18,-58,-46,-4,19,11,0
16415,-23,-12,-7,26,24,-21,8,-17,0
16420,2,4,-3,-11,-4,4,0,27,0
16425,19,7,4,14,77,16,60,6,0
16430,6,2,4,4,52,8,-17,7,0
16435,1,-3,-1,-5,24,10,-12,-2,0
16440,-12,-7,-8,-18,-91,-13,14,-22,0
16445,-6,1,-3,-1,7,-1,-3,-19,0
16450,-27,-16,-11,5,-14,-27,-58,-30,0
16455,19,2,-6,-11,-38,-1,-13,62,0
16460,26,24,22,25,19,32,29,-12,0
16465,-12,-18,-12,-15,-17,17,49,-6,0
16470,8,7,17,32,-35,-31,-49,7,0
16475,-10,-1,-4,6,57,46,27,-33,0
16480,-18,-19,-25,-38,4,-8,-20,27,0
16485,7,7,8,12,14,2,-36,-19,0
16490,1,-1,0,12,-65,-31,-26,34,0
16495,7,4,3,1,-24,-7,-24,4,0
16500,-4,-4,-10,-11,27,13,2,-22,0
16505,-6,-2,-1,-6,-39,-23,-42,11,0
16510,0,-2,-17,-25,64,24,44,-2,0
16515,12,7,6,6,-91,-12,27,27,0
16520,-5,-5,-5,-4,38,11,-15,-23,0
16525,-6,-4,0,4,-24,-23,-19,8,0
16530,8,8,24,72,-19,-9,5,-2,0
16535,-9,-13,-20,-64,-13,-15,-32,-16,0
16540,-3,3,2,-3,-41,-16,-13,-9,0
16545,4,-2,-5,-10,4,2,34,-6,0
16550,-8,-2,-1,0,14,10,16,-15,0
16555,-4,-1,8,19,-26,-5,9,-16,0
16560,1,0,4,10,11,24,12,26,0
16565,2,3,4,10,18,-17,-24,-5,0
16570,6,-4,-12,-18,43,28,67,16,0
16575,-3,-2,4,12,-12,-4,-33,-13,0
16580,-6,-6,-1,9,32,20,6,-20,0
16585,1,4,8,8,-71,-13,17,0,0
16590,-12,-13,-33,-79,21,9,-50,11,0
16595,-2,3,10,28,67,3,5,-12,0
16600,5,2,7,12,-15,-8,-6,14,0
16605,5,-1,-13,-27,90,38,60,2,0
16610,-4,-3,3,7,-21,-22,4,-7,0
16615,-6,-2,-2,5,11,-11,-37,-13,0
16620,-5,-6,-4,-6,-11,-3,-16,3,0
16625,8,6,5,32,36,-10,-58,3,0
16630,-8,-14,-25,-42,44,15,-16,-30,0
16635,0,1,7,-4,-3,-2,-11,6,0
16640,8,10,13,14,-53,-19,0,10,0
16645,-14,-13,-21,-33,42,34,27,-17,0
16650,8,9,20,43,16,15,25,5,0
16655,0,1,1,-6,-48,-16,15,-15,0
16660,-1,-11,-5,13,43,35,33,42,0
16665,-2,-1,-5,-16,27,12,13,-13,0
16670,5,6,11,28,-57,-26,8,10,0
16675,-12,-14,-40,-85,70,57,17,-8,0
16680,1,-4,-6,-11,-29,-22,7,-3,0
16685,0,-1,8,32,-60,-16,-71,2,0
16690,12,9,1,-20,38,45,63,-3,0
16695,0,2,9,26,0,-8,1,-3,0
16700,-14,-14,-18,-27,11,-26,-33,-12,0
16705,-7,-4,-3,14,27,32,-22,-11,0
16710,-2,4,12,13,-52,-10,16,4,0
16715,1,4,7,-9,-30,-10,1,-13,0
16720,-10,-13,-16,-16,-14,-24,-55,8,0
16725,4,7,11,16,-25,-13,26,3,0
16730,0,0,-1,15,85,41,10,9,0
16735,0,2,1,-29,-7,18,14,7,0
16740,-5,-5,-4,19,-4,-52,-25,-14,0
16745,0,0,-4,-29,-35,3,26,8,0
16750,3,-3,-3,0,34,9,-81,5,0
16755,2,0,7,28,-52,-18,11,9,0
16760,3,5,8,17,-23,-6,2,-23,0
16765,-7,-10,-14,-30,-31,-15,13,-3,0
16770,-14,-10,-6,-9,-54,-26,-6,-22,0
16775,1,0,6,18,-3,-14,-28,8,0
16780,8,10,8,-20,12,11,-4,1,0
16785,9,6,5,17,-17,9,52,2,0
16790,-2,-4,0,3,-10,-32,-36,2,0
16795,-3,-6,-10,-15,-82,-20,22,0,0
16800,-7,-4,-5,-5,12,3,-22,-6,0
16805,17,13,18,31,26,3,3,37,0
16810,-4,-3,-1,-11,-72,-23,1,-25,0
16815,-11,-11,-14,-44,5,-16,2,8,0
16820,3,2,2,21,57,56,13,-15,0
16825,-6,-3,-1,-7,-3,-8,-33,-18,0
16830,-3,-6,-8,-17,-32,-20,3,29,0
16835,8,4,7,39,16,-20,-19,14,0
16840,3,5,2,1,-27,-10,-22,-25,0
16845,-15,-8,-10,-14,20,10,2,-10,0
16850,11,6,-8,-45,38,22,71,12,0
16855,-10,-2,6,40,34,7,-41,-15,0
16860,2,-7,-21,-47,40,37,36,13,0
16865,-5,-6,4,7,-105,-64,-55,42,0
16870,-17,-8,1,8,-95,13,28,-33,0
16875,-5,-3,-23,-48,90,34,-12,1,0
16880,6,9,14,39,-52,-32,-31,21,0
16885,22,16,6,2,63,34,5,-11,0
16890,-7,-11,-2,15,24,-9,-7,-3,0
16895,1,7,22,36,-45,-17,9,-7,0
16900,-11,-10,-17,-35,33,19,29,-14,0
16905,-8,-9,-16,-25,-24,-11,-22,0,0
16910,16,20,41,91,-40,-45,-48,-6,0
16915,-2,-9,-26,-17,26,-6,-20,-7,0
16920,1,7,7,-27,46,16,19,8,0
16925,-2,-1,6,0,-24,-6,6,-3,0
16930,4,5,3,7,-72,-29,-40,-4,0
16935,-5,-8,-2,5,-12,12,23,-3,0
16940,4,-2,-15,-38,-3,20,66,34,0
16945,3,0,3,27,26,-14,-49,-9,0
16950,-2,-1,-10,-29,67,11,-36,-2,0
16955,0,2,8,1,-7,6,-39,-9,0
16960,-6,-7,-4,10,0,-15,-5,4,0
16965,-5,-2,1,5,-55,7,16,-1,0
16970,2,-1,-13,-30,49,39,20,-15,0
16975,11,6,12,13,-38,-5,41,9,0
16980,-13,-9,-7,11,70,12,-66,-28,0
16985,-9,1,14,43,-101,-28,-16,-5,0
16990,-1,-10,-24,-45,101,21,21,19,0
16995,-1,3,10,33,-55,29,84,-6,0
17000,10,3,10,5,-7,-12,6,20,0
17005,-3,-6,-15,-46,25,-8,-10,-29,0
17010,-8,0,13,17,-35,2,32,16,0
17015,3,-6,-10,0,51,17,-6,23,0
17020,2,5,16,21,-10,-42,-68,-31,0
17025,-4,-1,-5,-8,55,11,23,1,0
17030,7,6,9,28,-43,-15,-2,-6,0
17035,-11,-6,-6,-22,-84,-36,-26,-3,0
17040,-11,-2,6,8,-40,-16,-70,-26,0
17045,-5,-10,-14,-2,87,44,39,1,0
17050,-8,2,0,-2,-38,-29,-73,-4,0
17055,14,12,17,18,3,-24,-13,10,0
17060,0,-3,-9,-26,-94,2,5,-11,0
17065,-3,0,9,23,4,-36,-22,-16,0
17070,-7,-7,-19,-55,46,67,58,0,0
17075,-8,-8,-13,-4,16,-8,-52,-14,0
17080,0,2,7,3,-105,-50,6,14,0
17085,3,-2,-7,2,29,26,6,-10,0
17090,6,1,11,27,32,-12,15,12,0
17095,-2,0,-6,-20,38,8,-28,-16,0
17100,8,8,8,21,43,53,98,8,0
17105,1,7,15,24,-81,-45,-21,20,0
17110,-17,-17,-26,-14,32,17,39,-20,0
17115,-18,-15,-4,-6,0,-25,-32,39,0
17120,13,11,12,31,6,0,-21,-1,0
17125,4,3,7,-14,49,24,45,13,0
17130,1,1,6,24,-80,-29,-2,-9,0
17135,4,-6,-40,-102,-8,41,42,-5,0
17140,-9,-5,8,39,-41,-9,7,-2,0
17145,-8,-2,-4,2,-17,-5,-65,-8,0
17150,1,1,9,25,-47,-24,-32,11,0
17155,21,14,14,11,69,17,10,-2,0
17160,-5,-6,-7,-20,4,5,-17,-2,0
17165,1,2,-10,-29,22,17,4,-18,0
17170,-16,-3,-1,-6,-26,-21,-7,-14,0
17175,-6,1,11,36,-18,-5,22,0,0
17180,14,6,6,-16,-3,4,-2,24,0
17185,-8,-8,0,10,-99,-37,-42,-10,0
17190,0,-3,-14,4,27,47,-9,11,0
17195,3,5,5,-19,-42,-44,-16,-3,0
17200,-14,-8,-8,7,55,35,12,-15,0
17205,1,3,9,17,-32,-12,10,16,0
17210,7,4,6,-1,28,1,-39,-5,0
17215,-3,4,7,17,-37,11,-8,-27,0
17220,-8,-7,-3,13,11,-4,-17,5,0
17225,14,1,-14,-17,55,-14,-1,36,0
17230,1,1,5,2,21,-12,-39,-22,0
17235,-2,-3,-18,-15,44,48,-4,-2,0
17240,-3,3,3,-21,-61,-29,33,-12,0
17245,-5,-5,-6,7,49,12,-45,9,0
17250,4,0,2,5,-39,20,-14,-3,0
17255,-3,-7,4,13,44,-20,27,10,0
17260,-5,4,1,13,39,-5,22,-31,0
17265,14,5,0,-11,39,30,40,50,0
17270,4,2,4,-15,-96,-22,27,-4,0
17275,-8,-5,3,22,5,-2,-20,0,0
17280,1,1,-7,-5,24,16,4,1,0
17285,-12,-9,-6,-13,-40,-25,-18,-33,0
17290,-4,-2,-5,-11,31,-2,57,16,0
17295,0,-2,0,15,-3,3,-17,2,0
17300,0,-2,-7,-11,41,12,9,-17,0
17305,-5,-1,3,-7,-44,-15,-2,-7,0
17310,4,1,-1,6,0,2,0,25,0
17315,8,0,-1,6,-20,-13,6,2,0
17320,-17,-13,-9,-12,-61,-26,-54,-29,0
17325,3,3,4,20,47,-4,25,9,0
17330,2,1,-3,-15,-7,2,-5,-20,0
17335,5,6,-4,-41,30,23,11,7,0
17340,2,-1,1,23,54,58,32,22,0
17345,-10,-2,-2,-26,-42,-14,-18,-21,0
17350,0,0,3,23,17,-47,-73,-12,0
17355,1,8,7,-5,-40,28,49,9,0
17360,6,1,-19,-26,48,9,21,10,0
17365,-8,-6,-1,1,-38,9,7,3,0
17370,-1,2,3,8,67,0,6,-2,0
17375,4,6,24,62,-17,-8,-37,-25,0
17380,4,-5,-15,-63,-67,-21,-29,12,0
17385,-12,-22,-24,-21,-7,1,-20,-15,0
17390,-6,-2,1,0,-37,-22,-3,-6,0
17395,-5,-2,-2,8,20,-7,-11,6,0
17400,7,2,8,16,-12,-1,15,6,0
17405,8,2,0,-1,56,8,17,1,0
17410,-2,-2,7,14,-74,-28,-7,-8,0
17415,-4,-5,-12,21,101,47,39,4,0
17420,-8,-11,-16,-29,58,26,78,1,0
17425,5,3,0,-36,-45,7,6,-2,0
17430,1,4,10,19,0,-8,-16,16,0
17435,-4,0,10,34,11,25,35,4,0
17440,-8,-5,-8,-9,11,-23,-58,-24,0
17445,8,5,1,-19,6,31,30,-6,0
17450,-2,-9,-12,-9,23,13,0,4,0
17455,0,8,10,-17,-108,-23,-12,-16,0
17460,-7,-8,-3,20,15,10,-23,14,0
17465,0,7,6,1,-14,-13,-30,-9,0
17470,-1,2,3,15,17,39,21,-10,0
17475,-5,-9,-24,-61,-44,-30,-28,4,0
17480,-6,-5,6,22,10,-1,24,3,0
17485,-7,-5,-4,13,-17,-1,-3,-10,0
17490,3,4,11,31,33,12,39,11,0
17495,-2,-3,-15,-61,56,-3,26,-17,0
17500,-5,-1,7,17,-76,-38,-99,-5,0
17505,-2,2,9,17,3,15,5,-4,0
17510,1,3,0,-9,23,-7,-4,-5,0
17515,-9,-8,0,4,11,-14,-49,-15,0
17520,14,14,1,-50,-27,16,49,10,0
17525,-4,-6,0,11,-6,-13,-18,11,0
17530,-4,-7,-1,-13,-42,-7,0,-8,0
17535,7,5,7,30,32,1,-20,-6,0
17540,-2,-2,7,39,38,0,-3,-11,0
17545,-3,0,1,6,-67,-23,-3,-10,0
17550,-3,-1,-18,-50,105,67,26,20,0
17555,4,-4,-2,18,-45,-9,3,-3,0
17560,5,5,19,62,-69,-29,0,13,0
17565,1,1,-4,15,104,4,-33,-10,0
17570,-11,-8,-11,0,-40,-2,-28,-8,0
17575,-5,-7,-10,-24,-49,-16,-15,7,0
17580,-7,6,14,18,-65,-19,-99,-25,0
17585,-6,-9,-15,-25,18,1,3,3,0
17590,4,4,4,-7,-12,-18,-15,10,0
17595,2,3,-10,-38,49,27,-17,-16,0
17600,-3,-10,-17,-33,-86,-11,26,5,0
17605,5,12,35,78,-64,-35,-24,-13,0
17610,-6,-16,-47,-88,57,17,-2,-6,0
17615,8,5,9,12,-1,-7,21,28,0
17620,-8,-6,2,15,-21,-12,-20,-23,0
17625,-3,-1,-2,-16,-29,49,27,-10,0
17630,4,2,10,38,26,-31,-12,-2,0
17635,-1,2,8,19,-21,-15,-13,3,0
17640,8,3,-1,-13,-45,-8,1,15,0
17645,-14,-14,-20,6,18,-13,-38,-15,0
17650,-3,2,3,-7,-15,-10,-17,2,0
17655,1,-2,-9,-15,60,5,55,-6,0
17660,-10,-7,-18,-52,54,-16,-80,-13,0
17665,0,0,3,29,-44,-1,18,13,0
17670,9,1,-19,-31,82,33,58,21,0
17675,-2,7,20,19,-36,-19,-27,-14,0
17680,-5,-2,7,34,12,-5,-24,-15,0
17685,3,2,-27,-128,66,49,0,9,0
17690,4,-4,-2,8,-82,-42,-62,15,0
17695,-2,-4,9,7,-126,-51,42,14,0
17700,-1,6,22,53,11,19,3,6,0
17705,-8,-12,-26,-72,-12,7,5,-10,0
17710,2,14,39,39,-99,-21,-57,-28,0
17715,-5,-1,7,9,-63,-19,-35,22,0
17720,17,6,3,-9,-28,1,13,18,0
17725,0,-1,-15,-37,64,50,127,15,0
17730,-15,-7,4,25,-128,-32,-36,-13,0
17735,0,11,25,64,-8,-3,-48,-26,0
17740,-4,-4,-16,-59,-53,8,38,27,0
17745,15,19,25,46,7,-53,-128,-29,0
17750,-2,-12,-31,-61,53,37,109,3,0
17755,-5,-5,-3,7,77,50,46,-14,0
17760,-11,-16,-20,-11,9,-36,-13,-2,0
17765,9,8,12,18,-21,20,11,-3,0
17770,-3,1,12,16,-119,-23,36,5,0
17775,5,7,3,27,54,2,-13,-3,0
17780,2,1,0,10,15,-5,3,-4,0
17785,-12,-10,3,56,-30,7,44,-7,0
17790,-6,-5,-20,-64,-26,17,-87,-24,0
17795,-2,-11,-20,-11,54,32,41,29,0
17800,3,5,13,30,-2,45,121,1,0
17805,0,-3,-5,13,75,-5,-7,15,0
17810,17,13,4,-10,84,10,2,12,0
17815,-7,-8,-16,-37,-70,7,33,-21,0
17820,-4,-2,15,62,42,0,-15,-2,0
17825,-9,-16,-42,-30,78,36,23,7,0
17830,-6,-8,-11,-17,95,57,68,3,0
17835,-10,-7,-5,-19,-128,-22,-15,-12,0
17840,-5,-8,-9,7,72,-4,-14,-3,0
17845,0,8,22,25,-96,-15,-12,8,0
17850,19,13,27,84,0,-28,-35,8,0
17855,-11,-21,-42,-86,-46,11,27,-21,0
17860,-1,2,-6,-5,19,54,27,5,0
17865,7,-2,3,-5,-20,-68,-18,37,0
17870,-7,-3,6,20,-19,3,-12,-18,0
17875,2,2,9,30,42,-7,-18,1,0
17880,-2,-2,-16,-82,-26,-3,-8,-7,0
17885,-3,-2,0,1,-18,-10,-33,-10,0
17890,-2,-2,7,35,-17,-9,43,10,0
17895,2,6,7,14,14,3,-40,0,0
17900,6,1,-11,-22,-13,-4,33,-1,0
17905,1,-1,8,0,-67,-2,-14,-15,0
17910,0,0,3,15,65,8,28,13,0
17915,-2,-4,-8,-6,-4,14,50,22,0
17920,4,3,-7,-38,37,-14,3,11,0
17925,6,5,9,2,-7,-3,-7,-2,0
17930,-7,-5,-1,9,-43,-10,3,-19,0
17935,5,7,9,7,-25,-31,-70,-3,0
17940,11,6,14,50,28,32,27,29,0
17945,-8,-5,-11,-29,-19,8,36,-17,0
17950,-13,-10,-14,-21,14,-8,-73,-14,0
17955,-1,3,0,-4,-22,-13,-9,-7,0
17960,-2,3,7,16,-2,-18,-8,-5,0
17965,-6,3,-6,-31,-16,-3,-8,-18,0
17970,-5,-2,0,9,45,-22,-79,1,0
17975,14,5,11,28,-90,-11,17,29,0
17980,-7,-8,-6,6,12,3,-29,-22,0
17985,-10,0,2,10,8,-10,-3,-7,0
17990,-3,-1,-3,-4,-26,-8,36,7,0
17995,0,2,6,15,1,16,-25,-13,0
18000,5,-3,-7,3,33,13,27,13,0
18005,4,1,14,22,3,-22,-55,0,0
18010,-17,-15,-8,11,-35,-27,-56,-30,0
18015,-2,-3,0,-22,0,-12,-7,35,0
18020,12,11,5,-3,1,14,32,-23,0
18025,-8,-8,-2,-4,-100,-29,-30,-18,0
18030,-1,-5,-8,-7,35,16,0,2,0
18035,-11,-7,-11,-15,36,-20,-13,-15,0
18040,-8,1,17,33,-68,-28,-81,-10,0
18045,-4,-7,-24,-33,47,19,8,-4,0
18050,5,4,-2,-15,1,22,58,11,0
18055,-4,-3,3,11,7,-16,-44,-11,0
18060,3,4,5,1,-17,-36,-25,-7,0
18065,2,3,5,11,25,39,-11,-2,0
18070,-3,2,2,0,0,-2,14,-20,0
18075,0,-6,-15,-16,18,9,2,20,0
18080,-4,0,-1,-9,-34,-1,12,-6,0
18085,1,-5,-9,14,108,51,22,5,0
18090,3,4,0,-35,37,-15,10,0,0
18095,-8,-8,2,6,-49,9,11,-13,0
18100,-7,-11,-7,7,10,9,10,23,0
18105,12,9,2,5,-12,3,16,8,0
18110,8,8,17,24,-33,6,-27,3,0
18115,-4,-4,-5,-15,14,-15,-4,-28,0
18120,-12,-6,-13,-28,-9,-19,3,-6,0
18125,11,6,11,18,38,36,12,32,0
18130,-5,-3,-3,-2,-19,2,-15,-4,0
18135,1,5,4,-9,-24,6,24,-13,0
18140,-2,6,16,28,-39,-27,-48,-11,0
18145,1,-5,-29,-62,35,11,46,17,0
18150,1,0,2,7,-18,-1,14,11,0
18155,1,0,2,6,-7,7,-13,-5,0
18160,1,-2,-2,7,13,26,-8,-4,0
18165,-6,-4,6,8,-128,-63,-44,-20,0
18170,-1,-9,-20,-18,54,18,19,16,0
18175,5,12,12,15,51,0,-25,-1,0
18180,1,-4,-9,-25,-34,2,4,3,0
18185,-6,2,14,30,-9,-25,-21,-10,0
18190,5,-7,-15,-10,-35,-14,10,9,0
18195,-9,-4,-4,3,14,14,-51,-12,0
18200,2,6,11,27,39,-2,12,4,0
18205,4,-2,-16,-35,85,13,-31,-12,0
18210,11,9,10,-4,-51,1,-16,13,0
18215,-1,-6,-8,8,15,-10,6,12,0
18220,-10,-10,-5,-8,-84,-9,-22,-11,0
18225,-10,-7,-14,-53,0,-16,38,-1,0
18230,2,7,19,29,35,28,1,-5,0
18235,8,5,2,-3,8,-15,0,15,0
18240,4,4,0,-8,-16,14,7,-2,0
18245,1,5,9,4,-61,-32,10,-3,0
18250,-4,-8,-19,-14,87,58,41,-4,0
18255,1,-3,1,8,-9,7,52,7,0
18260,-2,-2,-4,12,-7,-11,-48,-4,0
18265,2,1,9,18,-31,-10,16,7,0
18270,-10,-4,-4,-11,-28,-12,-9,-15,0
18275,-1,1,0,-6,-5,-4,-3,5,0
18280,18,6,4,6,65,44,18,30,0
18285,-3,-7,5,19,-10,5,-1,-6,0
18290,-9,-3,-2,-21,-65,-36,-9,-9,0
18295,-1,-6,-2,10,-4,-17,-3,11,0
18300,-9,-1,8,-5,-86,-31,-50,-25,0
18305,-9,-8,-9,5,82,42,26,3,0
18310,8,5,12,19,-3,1,-38,-12,0
18315,10,6,2,7,1,-4,19,29,0
18320,-10,-8,-15,-22,14,-5,-5,-13,0
18325,-2,4,16,33,-128,-49,-54,-7,0
18330,-2,-4,-19,-27,-10,13,38,5,0
18335,0,5,11,34,5,-8,5,-5,0
18340,5,0,-13,-33,62,29,27,9,0
18345,3,5,14,15,-58,-40,-51,-9,0
18350,-11,-4,0,10,2,-25,26,7,0
18355,3,0,6,5,19,27,-16,-18,0
18360,6,3,-5,-25,1,-18,-15,11,0
18365,-2,-4,-1,25,40,7,0,2,0
18370,1,0,-3,-14,-43,1,-23,-6,0
18375,-10,-8,-14,-26,31,6,-9,-11,0
18380,-8,1,9,20,-95,-25,-5,-11,0
18385,1,-5,-13,-35,77,39,18,-3,0
18390,8,5,26,42,-86,-35,-14,20,0
18395,-7,-7,-22,-41,59,70,24,-5,0
18400,1,0,9,24,28,-20,-7,2,0
18405,-4,3,0,-12,-35,-19,-6,-4,0
18410,-4,-4,-1,13,11,-14,-41,-2,0
18415,1,3,0,-1,-23,-16,-17,-12,0
18420,-2,-2,-4,-11,-7,-1,52,2,0
18425,-1,-6,-4,13,-14,8,-3,11,0
18430,5,3,5,-4,20,-1,-5,1,0
18435,-6,-3,-10,-19,-38,-18,5,-2,0
18440,-10,-11,-14,-15,68,20,20,8,0
18445,13,14,19,36,9,10,-3,14,0
18450,6,5,5,22,-35,-29,-18,-8,0
18455,-4,-3,7,23,-48,-22,-45,-9,0
18460,-3,-3,-5,-2,36,6,-1,-2,0
18465,-8,-7,-12,-7,33,12,1,0,0
18470,-1,-3,-7,-12,65,-2,0,3,0
18475,0,4,5,7,24,23,-18,-6,0
18480,0,3,10,8,17,5,13,-2,0
18485,0,-6,-17,-36,4,-3,19,11,0
18490,-5,4,8,13,-12,-30,-23,-21,0
18495,-8,-12,-17,-44,57,14,20,-4,0
18500,-3,-2,-6,-7,-8,10,-19,4,0
18505,2,8,16,14,-20,-19,-33,-10,0
18510,-2,-1,-2,-13,-53,-21,-12,-2,0
18515,-1,-3,-2,14,22,-1,4,5,0
18520,0,1,4,7,-42,-8,2,-8,0
18525,-6,-6,-7,-11,-6,-3,-4,-5,0
18530,-5,-7,-7,-8,-23,-8,-27,-4,0
18535,10,7,13,16,3,9,1,17,0
18540,0,-1,-2,11,76,-4,-8,2,0
18545,-1,-3,-2,-9,-24,13,-24,20,0
18550,7,7,6,2,-12,4,-2,-20,0
18555,-9,-13,-37,-78,62,7,2,-2,0
18560,0,-2,4,10,5,19,26,8,0
18565,2,4,11,20,-10,1,-9,-10,0
18570,-2,-3,-2,-1,-21,-27,-9,10,0
18575,4,9,11,14,-16,-16,-19,-5,0
18580,-4,-8,-9,-15,-41,2,-32,-5,0
18585,-2,-4,-6,-13,-3,-20,-7,-4,0
18590,-1,2,-4,-8,5,24,20,3,0
18595,-3,-1,8,28,-56,1,28,-6,0
18600,0,-2,-6,-8,4,-25,-3,8,0
18605,-3,2,1,2,41,15,4,-13,0
18610,4,-1,-3,5,57,40,21,20,0
18615,-1,-1,5,6,-33,-19,-13,-7,0
18620,1,-1,-9,-34,7,10,10,-6,0
18625,-4,-4,-4,0,-16,-9,-14,-10,0
18630,-11,-8,-5,-5,-1,-1,-6,-13,0
18635,-1,1,3,12,-46,-18,-3,-10,0
18640,0,-2,1,9,20,12,4,26,0
18645,7,3,1,2,-7,-2,41,-14,0
18650,2,2,-1,-20,-18,-5,-15,-1,0
18655,0,2,10,23,9,-15,-19,-1,0
18660,-8,-5,-6,-6,-29,-16,-2,-19,0
18665,-8,-8,-5,7,56,15,-5,4,0
18670,-4,-1,0,15,22,9,21,6,0
18675,-2,-5,-11,-17,-22,4,-1,1,0
18680,-4,-2,-7,-22,-79,4,12,0,0
18685,-1,-3,2,27,75,-13,-6,5,0
18690,0,11,0,-5,30,17,32,-23,0
18695,8,3,-3,-19,34,28,-17,30,0
18700,9,6,0,-2,-4,6,2,-4,0
18705,1,-1,7,20,-35,-36,-8,20,0
18710,-3,-5,-5,0,61,44,1,-15,0
18715,-11,-6,1,11,-51,-36,-16,-15,0
18720,-2,-3,-7,-13,-14,-18,-33,-2,0
18725,1,3,0,-16,-35,-12,-10,-6,0
18730,-7,-4,0,3,-3,-6,-16,-2,0
18735,3,0,0,2,16,6,7,9,0
18740,-4,-2,5,8,8,24,-9,-5,0
18745,-3,-3,-7,-8,-24,-11,3,-4,0
18750,-3,-5,-3,-4,-27,-30,-9,7,0
18755,2,3,-3,0,36,44,-13,-8,0
18760,-1,-2,1,13,47,23,12,13,0
18765,-4,-2,-6,-19,-58,-25,-30,-11,0
18770,6,1,-1,17,49,20,46,15,0
18775,-1,-1,1,0,-39,-37,-35,-9,0
18780,-4,-3,-15,-12,52,9,10,-11,0
18785,1,-1,-2,0,0,20,5,3,0
18790,1,-6,-5,-13,-8,-19,-26,4,0
18795,-7,-3,-5,-15,-38,2,11,-5,0
18800,-2,-4,-3,-10,13,34,-8,-2,0
18805,3,2,5,0,-19,-7,20,0,0
18810,1,0,-5,-14,-14,-3,-13,3,0
18815,-3,-2,-4,-5,-10,-13,-3,-3,0
18820,-5,-1,2,-3,-51,-37,-18,-9,0
18825,-3,-3,-7,-4,10,-10,16,-4,0
18830,-1,-1,1,15,67,76,26,2,0
18835,-2,-5,1,3,-1,-22,19,3,0
18840,6,2,11,12,-24,-23,-3,7,0
18845,-2,0,-2,-6,-1,7,-11,-7,0
18850,-3,2,1,-5,-31,-21,-17,-4,0
18855,-4,0,-1,2,22,25,4,-5,0
18860,-1,-1,-1,1,-2,-3,10,-2,0
18865,-1,1,4,2,1,9,2,0,0
18870,-2,-5,-7,-13,-9,-2,-5,0,0
18875,-2,-3,-6,-10,-10,11,-1,1,0
18880,5,3,6,24,61,9,12,6,0
18885,1,2,4,8,19,13,-7,1,0
18890,-1,-2,0,-2,-23,-14,-16,1,0
18895,1,1,2,8,1,-27,19,3,0
18900,-3,-2,0,3,-10,-10,-7,-5,0
18905,-4,-5,-7,-14,-13,8,-12,-4,0
18910,-1,-1,1,4,-14,-15,-1,1,0
18915,4,1,0,0,12,24,4,1,0
18920,-2,-4,-5,-1,-18,-28,-28,-6,0
18925,-4,0,-1,-4,-1,7,51,5,0
18930,-3,-4,1,-5,-27,-14,-3,0,0
18935,1,-3,-4,-9,-20,-12,-1,2,0
18940,-1,2,2,-4,-10,2,-7,-3,0
18945,-1,-3,-3,-4,2,16,-11,-5,0
18950,-1,-2,-1,-6,-24,-21,0,-2,0
18955,0,-2,1,5,23,2,-8,-3,0
18960,-8,-2,2,3,-12,-1,4,-8,0
18965,7,-3,-5,-7,-13,-10,-5,9,0
18970,-3,-2,-4,-3,-3,-3,-4,-4,0
18975,0,1,3,7,17,-4,-2,-5,0
18980,-2,-6,-7,-15,-40,-13,-8,6,0
18985,-7,-1,4,2,-13,-11,-4,-4,0
18990,-1,-2,-2,-3,-8,-17,-9,-2,0
18995,0,0,1,2,19,26,11,-3,0
19000,-1,2,-2,0,2,1,0,3,0
19005,-4,9,2,3,0,-1,-17,-12,0
19010,10,-6,3,0,3,0,5,12,0
19015,-4,-6,-11,-10,-5,-3,1,5,0
19020,-12,-6,0,-10,-27,-27,-13,2,0
19025,15,3,3,3,17,-4,3,13,0
19030,-1,4,3,11,21,22,8,0,0
19035,4,0,2,-1,-25,-19,-6,-7,0
19040,-19,-3,-2,-3,7,1,-9,-12,0
19045,-16,-4,-4,-2,-3,-1,2,1,0
19050,18,5,4,0,9,4,-3,0,0
19055,9,-5,-2,1,-3,1,8,16,0
19060,6,1,2,3,3,2,5,-5,0
19065,-12,-5,-2,0,2,0,-14,-8,0
19070,-12,-6,-5,-5,-4,0,-7,-8,0
19075,0,11,8,2,-5,-23,-13,-2,0
19080,4,-6,-11,-5,4,3,-1,-1,0
19085,-3,-8,-1,-4,-5,4,4,-5,0
19090,-11,-10,-7,1,12,1,4,-1,0
19095,1,1,1,-1,-4,-6,-11,-3,0
19100,4,4,3,3,4,8,5,-2,0
19105,1,-1,-6,-3,-3,-12,-8,-3,0
19110,0,0,-4,-5,-11,-13,-8,-2,0
19115,-9,-3,1,0,0,12,-3,-3,0
19120,4,-1,2,8,21,7,3,0,0
19125,1,1,-2,0,0,2,-9,-1,0
19130,-5,1,-2,-14,-41,-21,-10,-7,0
19135,-2,-2,3,11,36,18,10,-9,0
19140,0,1,1,3,12,20,1,9,0
19145,10,-2,-4,-11,-29,-18,2,17,0
19150,12,9,6,-1,5,3,6,11,0
19155,0,1,5,17,27,13,5,-3,0
19160,-5,-1,-1,-5,-17,-9,-1,-23,0
19165,-12,-6,-5,-3,3,-5,-10,3,0
