Timestamp, Rotation x, Rotation y, Rotation z, Marker
50,-5.1875,-3.8125,7.5,0
70,-3.0625,-4.25,7.5625,0
90,-1.5625,-4.1875,8.9375,0
110,-3.625,-3,9.1875,0
120,-9.5625,-3.875,6.5,0
120,-13.125,-8.125,0,0
160,-5.875,-9.1875,0.375,0
180,-2.75,-6.9375,0.3125,0
200,-0.9375,-6.0625,-4.625,0
220,-0.625,-4.6875,-2.875,0
240,0.6875,-2.8125,0.375,0
260,1.125,-1.5625,3,0
280,-1.6875,-0.3125,7.3125,0
300,-3.25,2.1875,9.0625,0
320,-5.625,5.375,6.5625,0
340,-8,7.625,5.4375,0
360,-5.0625,17.6875,3.8125,0
380,-3.3125,25.9375,3,0
400,-4.5,27.875,1.4375,0
420,1,28.1875,-3.25,0
440,5.0625,32.25,-14.6875,0
460,8.6875,31.0625,-19.3125,0
480,15.0625,24.4375,-19.3125,0
500,11.125,16.4375,-16.8125,0
520,5.4375,9.9375,-13.8125,0
540,0.5625,4.8125,-10.5,0
560,1.9375,0.9375,-6,0
580,3.6875,-3.1875,-2.9375,0
600,3.4375,-8.5625,0.125,0
620,-8.6875,-16.5625,-7.5,0
640,0.9375,-14.9375,-6.9375,0
660,12.4375,-4.1875,5.125,0
680,5.3125,-3,-0.875,0
700,-2.4375,-3.0625,-6.375,0
720,-1.625,-0.125,-3.3125,0
740,6.0625,-0.8125,-7.8125,0
760,-0.6875,-6.1875,-3.75,0
780,-3.8125,-12.875,10,0
800,6.875,-8.375,8.625,0
820,10,-6.625,7.25,0
840,4.875,-4.125,10.9375,0
860,-2.75,-4.125,12.5,0
880,6.9375,0.375,12.5,0
900,8.1875,-0.9375,15.3125,0
920,2.9375,0.3125,13.5,0
940,-3.3125,-3.4375,13.875,0
960,-2.25,-4.3125,19.5,0
980,1.5625,-2.625,16,0
1000,0.125,1.75,8.0625,0
1020,-0.0625,4.625,13.625,0
1040,2.0625,3,17.3125,0
1060,6.125,-1.6875,8.9375,0
1080,0.0625,-7.125,10.25,0
1100,1.75,-4.125,12.8125,0
1120,7.6875,1.875,16.4375,0
1140,4.9375,6.0625,21.3125,0
1160,4.125,2.6875,24.9375,0
1180,3.6875,-1,25,0
1200,8.4375,-0.3125,18.875,0
1220,2.5,-3.9375,21.5,0
1240,2.1875,-3.4375,27.25,0
1260,9.1875,-3,17.25,0
1280,12.75,-8.8125,15.4375,0
1300,12.125,-1.8125,22.125,0
1320,18.8125,2.1875,16.375,0
1340,16.6875,-8.625,-2.375,0
1360,3.125,-12.3125,-14.625,0
1380,-2.8125,-5,-9.9375,0
1390,6.6875,4.1875,-2.125,0
1410,12.5,0.9375,-4.125,0
1430,3.6875,-1,-5.8125,0
1450,-3.1875,1,-2.9375,0
1470,2.5625,10.0625,2.1875,0
1490,8.5,6.375,6.3125,0
1510,6.0625,-0.8125,1.8125,0
1530,4.625,-2.5,-2.8125,0
1550,0.4375,-7.75,-2.25,0
1570,6.25,-10.6875,1.25,0
1590,10.4375,-11.3125,7.6875,0
1610,14.8125,-4.875,7.4375,0
1630,20.625,2.375,2.5,0
1650,11.1875,0.6875,-4.1875,0
1670,8.5,-4.75,-6.875,0
1690,10.4375,-1.4375,-9.875,0
1710,20.4375,7.125,-10.3125,0
1730,15.6875,3.4375,-10.1875,0
1750,4.625,-0.4375,-6.9375,0
1770,6.1875,5.4375,-0.5,0
1790,13,12.9375,-1.3125,0
1810,11.9375,15.75,2.1875,0
1830,9.3125,19.8125,3.3125,0
1850,7.9375,17.125,-1.875,0
1870,10.75,12.1875,-5.875,0
1880,11,12.375,-11.25,0
1900,7.4375,13,-11.75,0
1920,7.1875,13.125,-9.3125,0
1940,12.125,13.25,-10.625,0
1960,10.625,12.8125,-9.75,0
1980,1.75,9.4375,-6.875,0
2000,-1.25,8.6875,-12.1875,0
2020,0.25,10.125,-11.0625,0
2040,-0.6875,7.8125,-9.9375,0
2060,-6.3125,6.4375,-8.875,0
2080,-5.8125,6.5,-8.9375,0
2100,-1.4375,8.3125,-6.8125,0
2120,-2.75,9.5625,0.4375,0
2140,-3.125,9.125,0.9375,0
2160,-2.4375,9.9375,1.375,0
2180,2.8125,9.8125,0.3125,0
2200,2.625,7.25,-2.8125,0
2220,1.8125,4.5,-8.875,0
2240,3.5,5.875,-9.625,0
2260,-0.25,7.8125,-6.25,0
2280,-6,6.1875,-4.5625,0
2300,-8.75,3.5625,-3.375,0
2320,-4.5625,2.75,-3.125,0
2340,-3.5,3.375,-3.6875,0
2360,-5.25,2.75,-6,0
2380,-5.1875,0,-6.5625,0
2400,-7.0625,-1.125,-6.9375,0
2420,-7.125,0.5,-7.25,0
2440,-8.9375,1.1875,-2.625,0
2460,-10.8125,0.5,-1.25,0
2480,-11.3125,1.0625,-1.625,0
2500,-11.9375,0.9375,1.5,0
2520,-17.625,-0.625,5.5,0
2540,-23.4375,-6.5,8.25,0
2560,-27.9375,-14.1875,10.5,0
2580,-22.9375,-19.625,8.0625,0
2600,-16.0625,-23,2.25,0
2620,-12.4375,-27.25,-4,0
2640,-12.1875,-26.8125,-7.5625,0
2660,-14.1875,-22.75,-9.5625,0
2680,-14.5,-20.75,-11.75,0
2700,-13.75,-19.1875,-11.875,0
2720,-12.875,-16.4375,-10.0625,0
2740,-14.8125,-9.8125,-9.0625,0
2760,-15.6875,-4.875,-6.625,0
2780,-16.3125,-0.75,-3.4375,0
2800,-14.0625,3.3125,-2,0
2820,-14.0625,6.875,-3.8125,0
2840,-14.6875,10.5,-3.875,0
2860,-13.375,13.6875,-2.75,0
2880,-10.125,15.9375,-1.625,0
2900,-8.8125,17.5625,-3.0625,0
2920,-10.5625,16.6875,-1.3125,0
2940,-7.6875,13.5,2.0625,0
2960,-5,10.5625,2.0625,0
2980,-5.5625,7.0625,1.125,0
3000,-6.3125,3.5625,0,0
3020,-6.5,1.375,0.0625,0
3040,-4.5625,2.0625,0.125,0
3060,-2.25,4.3125,-0.625,0
3080,-1.8125,5.5,-2.25,0
3100,-2.9375,6.5,-3.4375,0
3120,-2.5625,7.875,-5.8125,0
3140,0.125,9.5625,-8.8125,0
3160,2.125,13.3125,-11.5625,0
3180,3.6875,18.5,-15.6875,0
3200,3.6875,25,-19.9375,0
3220,2.125,33.5625,-24.1875,0
3240,6.375,43.0625,-29.125,0
3260,12.6875,54,-31,0
3280,12.4375,64.125,-32.75,0
3300,13.6875,77.6875,-36.0625,0
3320,20.5,93.0625,-37.875,0
3340,26,108.312,-39.0625,0
3360,32.4375,118.125,-33.75,0
3380,33.625,123.188,-32.25,0
3400,35.5625,131.75,-29.9375,0
3420,35.3125,135.875,-25.9375,0
3440,38.125,142.062,-24.6875,0
3460,37.25,144.75,-22.1875,0
3480,32.5,145.25,-20.5625,0
3500,27.75,145.062,-10.9375,0
3520,27.3125,141.375,5.1875,0
3540,31.1875,133.688,17.8125,0
3560,33.5,124.062,21.1875,0
3580,30.8125,116.25,24.3125,0
3600,25.75,111.562,30.625,0
3620,25.5,106.938,41.8125,0
3640,30.8125,101.312,51.875,0
3660,35.75,98.6875,54.875,0
3680,37.8125,93.875,55.9375,0
3700,37.0625,96.875,59.875,0
3720,33.3125,98.3125,75.3125,0
3740,28.75,100.5,86.0625,0
3760,27.3125,102.375,86.875,0
3780,28,104.375,87.0625,0
3800,25.875,107.875,94.8125,0
3820,22.3125,111.875,103.188,0
3840,25.125,112.062,106.688,0
3850,25.8125,117.875,101.188,0
3870,23.375,124.812,92,0
3890,16.0625,129.75,96.5,0
3910,1.5,127.25,102.562,0
3930,-7,123.25,88.5625,0
3950,-8.4375,129,72.875,0
3970,-12.5,134.312,67.625,0
3990,-12.625,137.188,73.625,0
4010,-23.8125,127,60.25,0
4030,-23.5625,116.375,33.3125,0
4050,1.0625,103.438,26.0625,0
4070,17.8125,72.625,18.625,0
4090,29.625,22.1875,-6,0
4110,54.8125,-11.375,-19.125,0
4130,77.3125,-18.8125,-21.4375,0
4150,88.8125,-9.3125,-29.5,0
4170,73.625,-12.9375,-39.8125,0
4190,35.3125,-27.1875,-49,0
4210,7.5,-38.3125,-42.3125,0
4210,0.125,-41,-39.8125,0
4230,6.625,-38.5625,-44,0
4260,17.9375,-36.5,-31,0
4280,12.75,-34.6875,-28.4375,0
4300,13.375,-32.4375,-31.75,0
4320,7.875,-27.9375,-26.8125,0
4340,11.1875,-30,-16.8125,0
4360,13.4375,-38.875,-19.4375,0
4380,17.75,-59.25,-30,0
4400,30.125,-80.5625,-27.75,0
4420,34.0625,-98.1875,-15.4375,0
4440,29.9375,-124.125,-9.9375,0
4460,24.0625,-143.312,-24.9375,0
4480,18.4375,-160.188,-27,0
4500,14.1875,-171.188,-17.0625,0
4520,14.6875,-191.25,0.125,0
4540,1.5625,-218.5,17.4375,0
4560,-9.3125,-227.688,29.4375,0
4580,-15.0625,-225.188,43.75,0
4600,-19.8125,-215.688,47,0
4620,-24.5,-201.75,49.5625,0
4640,-30.5625,-186.188,37.8125,0
4660,-28.8125,-162.938,31.5625,0
4680,-26.3125,-134.5,16.1875,0
4700,-29.0625,-109.188,0.5,0
4720,-42.5,-81,-15,0
4740,-48.75,-55,-27.1875,0
4760,-56.875,-45.5,-24.375,0
4780,-57.1875,-46.9375,-29.1875,0
4800,-52.0625,-41.5,-30.75,0
4820,-53.8125,-32.5,-16.0625,0
4840,-52.1875,-28.3125,-1.875,0
4860,-47.1875,-24.3125,4.125,0
4880,-39,-11.8125,7,0
4900,-30.5625,-1.25,17.8125,0
4920,-19.25,8.375,26.125,0
4940,-10.3125,19.0625,23.625,0
4960,-3,30.625,22.875,0
4980,1,42.125,24.6875,0
5000,9.6875,49.375,21.9375,0
5020,18.875,50.875,16.375,0
5040,23.1875,43.875,7.75,0
5060,23.0625,29.625,1.8125,0
5080,11.5,11.0625,5.0625,0
5100,20.8125,-2.625,11.625,0
5120,26.125,-18.25,14.125,0
5140,24.25,-31.8125,12.0625,0
5160,23.5,-36.9375,8.375,0
5180,29.125,-38.1875,13.125,0
5200,32.6875,-36,13.9375,0
5220,30,-30.25,11.625,0
5240,25.625,-24.125,9.6875,0
5260,25,-16.75,11.8125,0
5280,24.9375,-10.875,12,0
5300,26.8125,-1.9375,7.1875,0
5320,19.5,1.4375,4.4375,0
5340,17.4375,4,8.75,0
5360,22.5,6.125,15.75,0
5380,27.75,16.25,11.0625,0
5400,28,24.8125,4.625,0
5420,19.9375,19.4375,5.0625,0
5440,12.6875,13.1875,7.0625,0
5470,13.9375,11.25,6.5,0
5490,15.3125,10.5625,6.25,0
5510,13.875,7.3125,3.625,0
5530,9.4375,7.25,9,0
5550,11.25,9.0625,14.1875,0
5570,12,9.9375,11.0625,0
5590,7.6875,8.5,6.9375,0
5610,5.4375,9.1875,2.375,0
5630,0.4375,6.625,-6.8125,0
5650,-2.375,5.875,-15.1875,0
5670,-4.3125,9.1875,-23.5625,0
5690,-5.5625,12,-37,0
5710,-4.875,13.4375,-54,0
5730,-7.0625,10.375,-63,0
5750,-16.125,9.1875,-76.1875,0
5770,-26.1875,5.75,-88.5,0
5790,-44.5625,-0.5,-93,0
5810,-56,-6.1875,-93,0
5830,-62.625,-17.25,-92.375,0
5850,-74.25,-34.875,-86.125,0
5870,-82.5,-50.25,-72.25,0
5890,-78.625,-70.25,-60.25,0
5910,-80.5625,-92.3125,-51.125,0
5930,-84.5,-105.5,-43.1875,0
5950,-79.3125,-110.5,-33,0
5970,-74.5625,-109.938,-15.75,0
5990,-68.75,-105.938,5.8125,0
6010,-64.25,-100,26.625,0
6030,-59.5625,-93.75,38.3125,0
6050,-61.1875,-82.3125,47.875,0
6070,-59,-68.9375,59.625,0
6090,-50.8125,-55.5,69.875,0
6110,-41.6875,-40.9375,68.6875,0
6130,-36.9375,-31.3125,60.25,0
6150,-37.875,-23.1875,54.0625,0
6170,-37.375,-16.9375,56.75,0
6170,-23.6875,-10.875,52.0625,0
6190,-14.625,-15.4375,23.5625,0
6210,-16.25,-27.125,16.3125,0
6230,-20.9375,-26.9375,5.625,0
6250,-14.4375,-24.5625,14.5625,0
6270,-3.5,-18.8125,31.4375,0
6290,-6.25,-18.875,20.5625,0
6310,-8.8125,-13.25,15.875,0
6330,-3.9375,4.6875,16.125,0
6350,-2.6875,10.6875,22.375,0
6370,-8.25,8.875,23.75,0
6390,-11.4375,1.25,12.6875,0
6410,-14.625,-2.25,6.125,0
6430,-13.4375,-1.3125,6.75,0
6450,-12.375,-9.0625,4.875,0
6470,-14.625,-3.375,-15.8125,0
6490,-11.4375,-3.6875,-17.3125,0
6510,-5.3125,-3.5,-7.5,0
6530,-6.25,-4.1875,0.6875,0
6550,-16,-8.0625,-8,0
6570,-18.625,-15.8125,-10.5625,0
6590,-19.5,-16.125,-9.4375,0
6610,-21.0625,-17.25,-10.375,0
6630,-23.9375,-19.4375,-17.25,0
6650,-24.1875,-21.4375,-23.0625,0
6670,-21.1875,-21.75,-22.0625,0
6690,-22.1875,-23.9375,-23.1875,0
6710,-24.125,-23.8125,-23.1875,0
6730,-28.0625,-23.125,-19.75,0
6750,-26.875,-22.3125,-16.25,0
6770,-24.125,-24.875,-15.125,0
6790,-21,-23.8125,-16.5,0
6810,-20.3125,-16.5625,-13.5,0
6830,-17.25,-11.625,-9.5,0
6850,-13.6875,-12.875,-9.0625,0
6870,-14.25,-10.9375,-10.0625,0
6890,-14.4375,-8.1875,-6.75,0
6910,-14.875,-7.9375,-3,0
6930,-10.9375,-8.1875,-0.4375,0
6950,-7.6875,-4.625,-1.6875,0
6970,-8.125,-5.375,0.6875,0
6990,-7.0625,-4.125,1.5625,0
7010,-5.25,1,7.375,0
7030,0.25,0.4375,10.75,0
7050,-0.125,-2.9375,3.3125,0
7070,0.625,0.75,-3.125,0
7090,3.5625,6.625,-1.75,0
7110,7.5625,6.6875,7.9375,0
7120,7.1875,8.3125,8.0625,0
7140,4.125,6.375,3.375,0
7160,2.5625,1.9375,4.75,0
7180,2.9375,0.9375,0.6875,0
7200,5.25,-4.875,-3.4375,0
7220,8.75,-4.625,-7.375,0
7240,5.75,-5.4375,-11.9375,0
7260,-0.5625,-9.1875,-13.875,0
7280,-1.4375,-10.8125,-18.75,0
7300,-2.4375,-9.1875,-21.5625,0
7320,-3.875,-6.5,-17.5,0
7340,-2.4375,-3.875,-10.125,0
7360,-1.875,-1.75,-6,0
7380,1.3125,1.4375,-2.5625,0
7400,-0.125,0.3125,2.0625,0
7420,1.875,-1.125,5.4375,0
7440,4.9375,-0.0625,6.25,0
7460,-1.25,-1.4375,6,0
7480,-5.625,-2.125,9.0625,0
7500,-3.5,-2.1875,12.5,0
7520,6.25,-3.1875,15.125,0
7540,11.625,-3.75,14.3125,0
7560,6.375,-5.25,11.5625,0
7580,6.5625,-6.9375,5.9375,0
7600,11.375,-5.75,4.25,0
7620,13.3125,-3.8125,8.5,0
7640,11.375,-0.6875,12.25,0
7660,11.3125,-1.5625,10.625,0
7680,14,1.375,8.125,0
7700,16.3125,2.6875,8.875,0
7720,16.5625,4,10.75,0
7740,21.1875,2.9375,5.4375,0
7760,23.5625,3.375,2,0
7780,21.8125,1.5625,-1.75,0
7800,21.4375,1.6875,-13.5625,0
7820,27,3.75,-23.375,0
7840,28.4375,-1.25,-26.8125,0
7860,20.9375,-6.625,-26.3125,0
7880,12.8125,-8.25,-18.4375,0
7900,13.875,-3.75,-13.25,0
7920,12.5,-2.9375,-10,0
7940,7.4375,-1.3125,-7.1875,0
7960,1.75,1.5,-5.3125,0
7980,-0.75,2.4375,-4.375,0
8000,-2.0625,2.4375,-4.8125,0
8020,0.8125,5.6875,-3.375,0
8040,0.625,4.1875,1.375,0
8060,-2.4375,0.4375,4.1875,0
8080,-1.875,-0.625,0.4375,0
8100,3.875,5.125,1.0625,0
8120,4.75,5.5625,10.6875,0
8140,1.5625,3.3125,15.5625,0
8160,4.875,3.5,14.6875,0
8180,7,4.6875,16.875,0
8200,4.3125,4.375,18.375,0
8220,6.75,7.4375,17.3125,0
8240,11.5625,10.5,21.75,0
8260,15.625,9.25,25.4375,0
8280,9.4375,8.375,28.125,0
8300,12.0625,11.0625,22.75,0
8320,12.0625,11.375,16.625,0
8340,7.4375,13.1875,15.375,0
8360,5.3125,10.375,9.625,0
8380,5.4375,5.875,11.25,0
8400,8.6875,8.1875,7.5,0
8420,8.8125,11.0625,8.0625,0
8440,8.625,12.3125,11.4375,0
8460,11.0625,12.375,11,0
8480,8.875,11.375,9.25,0
8500,6.5,15.875,1.25,0
8520,11.125,15.75,1.875,0
8540,13,13,3.6875,0
8560,11.875,10.5,3.4375,0
8580,6.0625,8.875,7.25,0
8600,3.5625,5.75,5.8125,0
8620,2.8125,4.3125,1.1875,0
8640,-0.0625,4.375,-0.625,0
8660,2.1875,3.625,1.75,0
8680,3.3125,2.5625,3.375,0
8700,9.4375,0.5625,3.6875,0
8720,9.5,-1.0625,0.1875,0
8740,8.375,-5,0.75,0
8760,10,0.8125,3.9375,0
8780,4.75,4.4375,5.75,0
8800,6.875,1.5,6.8125,0
8820,9.75,-0.25,10.1875,0
8840,4.5,6.4375,4.875,0
8860,16.125,25.0625,2.875,0
8880,24,21.9375,7.3125,0
8900,12.375,6.5625,5.6875,0
8920,0.25,4.25,0.5,0
8940,-3.25,3,-2.8125,0
8960,-6,-3.0625,-3.25,0
8980,-6.125,-7.0625,-6,0
9000,-7.6875,-6.9375,-3.875,0
9020,-9.3125,-5.875,-5.75,0
9040,-9.6875,-8.625,-12.4375,0
9060,-10.0625,-9.125,-14.875,0
9070,-10.5625,-7.375,-15.5,0
9090,-11.3125,-6.75,-16.125,0
9110,-11.4375,-6.4375,-17.875,0
9130,-8.8125,-3.8125,-21.6875,0
9150,-5.75,-1.1875,-21,0
9170,-3.5,-1.0625,-13.6875,0
9190,-3,1,-8.9375,0
9210,-4.25,2.8125,-6.4375,0
9230,-4.75,3.3125,-3.8125,0
9250,-6.3125,2.5625,-3,0
9270,-6.5,1.6875,0.25,0
9290,-2.25,1.875,3.5625,0
9310,2.6875,2.75,8.75,0
9330,12.5,6.4375,5,0
9350,19.3125,3.6875,-0.1875,0
9370,16.9375,1.375,-3.125,0
9390,19.125,6.375,-3.125,0
9410,22.5,13.0625,2.25,0
9430,17.9375,16.8125,5.8125,0
9450,15.125,15.8125,3.8125,0
9470,10.1875,16.4375,3.375,0
9490,9.5,22.9375,6.375,0
9510,7,19.125,8.5625,0
9530,8.25,12.5625,6.875,0
9550,5.1875,10.25,3.3125,0
9570,1.6875,7.8125,2.0625,0
9590,1.625,5.375,0,0
9610,1.375,5.3125,0.8125,0
9630,0.3125,5.8125,-0.125,0
9650,-4.5,7.75,-2.8125,0
9670,-4.875,9.75,-4.1875,0
9690,-5.5625,9.3125,-2.75,0
9710,-5.6875,8.5,-0.0625,0
9730,-7.125,5.375,2.9375,0
9750,-3.6875,1.625,-1.6875,0
9770,-1,2.875,-6.9375,0
9790,0.6875,-0.1875,-8,0
9810,-1,-2.25,-5.75,0
9830,-3.25,-4.4375,-4.25,0
9850,-3.375,-4.625,-4.625,0
9870,-3.375,-5.0625,-4.3125,0
9890,-5.5,-3.3125,-3.125,0
9910,-4.5,0.875,-0.375,0
9930,-2,0.5,-0.375,0
9950,-2.4375,1.3125,-2.375,0
9970,-3.3125,-0.4375,-0.25,0
9990,-1.0625,-4.4375,1,0
10010,1.875,-5.8125,-6.0625,0
10030,0.4375,-3.875,-8.625,0
10050,-2.25,-3.5625,-6,0
10070,-5.375,-2.125,-2.8125,0
10090,-4.8125,-2.875,-1.3125,0
10110,-3.6875,-2.125,-0.5,0
10130,-5.75,-0.3125,0.3125,0
10150,-5.8125,-10.5625,-0.125,0
10170,-3.6875,-8.0625,-3.375,0
10190,-4.6875,6.4375,4.6875,0
10210,0.25,0.9375,9.75,0
10230,6.875,-4.75,5.1875,0
10250,4.9375,-3.9375,7.5,0
10270,3.6875,-6.875,4.0625,0
10290,0,-6.125,1,0
10310,-5.6875,-8.4375,0.125,0
10330,-6.5625,-7.75,-2.25,0
10350,-5.0625,-6.5625,-4.5,0
10370,-6.4375,-3.8125,-4.8125,0
10390,-4.5625,-1.0625,-3.9375,0
10410,-6.4375,0.6875,1.0625,0
10430,-6.75,1.625,8.125,0
10450,-11.5,-10.4375,-9,0
10470,-12.3125,-13.625,-22.875,0
10490,0.5625,-16.875,-24.9375,0
10510,20.6875,-5.875,-16.875,0
10530,14.3125,-5.4375,-14.8125,0
10550,4.5625,-4.25,-16.75,0
10570,-0.9375,0.8125,-13.5625,0
10590,-1.1875,7.0625,-6.75,0
10610,-4.625,6.9375,-0.875,0
10630,0.375,4.9375,-5.4375,0
10650,2.5625,0.625,-7.75,0
10670,0.125,0.125,-9.875,0
10690,-4.8125,1,0.9375,0
10710,-4.3125,-3.625,7.1875,0
10730,-7.5625,-8.0625,8.0625,0
10750,-8.5,-8.75,10.0625,0
10770,-6.625,-5.0625,15.8125,0
10790,-8.0625,-5.0625,17.75,0
10810,-10.0625,-6.5,4,0
10830,-8.9375,-5.9375,2.0625,0
10850,-2.375,-3.25,-1.9375,0
10870,-2.375,-1.1875,-2.75,0
10890,-9.375,1.6875,-0.625,0
10910,-4.9375,-2,5.3125,0
10930,-7.625,-4.8125,9.4375,0
10950,-16.5,-0.875,8.25,0
10970,-15.125,-3.25,4.0625,0
10990,-14.125,-6,-3.4375,0
11010,-8.4375,12.9375,6.375,0
11030,6.6875,-3,27.0625,0
11050,13,-1.3125,30.3125,0
11070,10.0625,2,24.5625,0
11090,7.8125,1.5625,24.8125,0
11110,6.8125,-3.625,19.3125,0
11130,1.3125,-7.1875,13.1875,0
11150,-2.4375,-7,10.0625,0
11170,-0.1875,-4.875,9.9375,0
11190,3.625,-3.3125,11.8125,0
11210,5.375,-0.5,11.5,0
11230,5.4375,3.6875,9.875,0
11250,4.375,8.6875,6.375,0
11270,8.5,12.25,7.875,0
11290,11.1875,12.6875,9.75,0
11310,8.1875,11.5625,9.6875,0
11330,6.25,12,8.75,0
11350,8.75,12.4375,2.9375,0
11370,8.375,8.75,0.9375,0
11390,8.8125,5.1875,-0.3125,0
11410,8.5625,2.625,2,0
11430,7.1875,3.6875,4.625,0
11450,6.75,7.8125,4.75,0
11470,5.875,4.875,-0.0625,0
11490,4.3125,3.0625,0.3125,0
11510,8.8125,5.8125,-3.375,0
11530,8.8125,4.6875,-6.625,0
11550,4.1875,5.4375,-7.3125,0
11570,5.625,0.8125,-7,0
11590,9.0625,-1.125,-6.0625,0
11610,9.75,0.1875,-1.3125,0
11630,9.6875,3.3125,4.6875,0
11650,8.375,1,1.8125,0
11670,4,1.625,-2.625,0
11690,3.8125,0.875,-1.125,0
11710,4,1.9375,1.75,0
11730,2.75,6.375,6.0625,0
11750,5.3125,4.3125,3.6875,0
11770,3.1875,6.9375,5.1875,0
11790,3.875,5.9375,8.5625,0
11810,2.375,9.0625,3.625,0
11830,-1.625,8.5,2.25,0
11850,-2,5.3125,-0.875,0
11870,0.3125,3.625,-3.9375,0
11890,-0.1875,3.3125,0.3125,0
11910,0.5,3.375,1.5,0
11930,1.6875,5.625,0.25,0
11950,5.25,4.5,-2.3125,0
11970,4,2.4375,-4.5,0
11990,-0.0625,2.75,-2.1875,0
12010,-0.4375,3.1875,1.5,0
12030,3.3125,3.3125,2.375,0
12050,4.4375,2.9375,0.625,0
12070,3.5625,2.4375,-0.625,0
12090,2.25,2.625,-0.125,0
12110,3.6875,2.8125,1.375,0
12130,5.375,0.8125,1,0
12150,6.875,1.3125,2.3125,0
12170,8.125,2.8125,1.5,0
12190,5,2.4375,1.625,0
12210,5.75,1.4375,-0.8125,0
12230,7.125,-0.375,0.1875,0
12250,8.0625,-0.1875,2.5,0
12270,7.5625,-0.8125,0,0
12290,6.875,-0.375,-1.875,0
12310,6.125,0.5,-1.5,0
12330,6.375,3.0625,-1,0
12350,6.375,3.0625,1.8125,0
12370,5.9375,4.5,2.75,0
12390,4.0625,4.0625,1.5,0
12410,2.8125,5.4375,1.5625,0
12430,4.375,4.5625,1.875,0
12450,6.1875,6.75,2.1875,0
12460,5.8125,8.625,4.1875,0
12480,4.375,5.4375,0.125,0
12500,3.1875,4.875,-0.125,0
12520,4,5.6875,3.0625,0
12540,2.25,3.25,3.75,0
12560,-2.1875,2.4375,3.375,0
12580,-1.25,3.4375,2.0625,0
12600,1.875,5.1875,1.6875,0
12620,2.9375,4.9375,2.625,0
12640,0.8125,3.5,0.125,0
12660,0.75,3.375,-3.0625,0
12680,-0.0625,0.4375,-6.9375,0
12700,2.125,-5.125,-10.5625,0
12720,0.4375,-8.1875,-11.625,0
12750,-20.375,-22.625,-26.4375,0
12750,-14.5625,-9.9375,-16.375,0
12770,-15.25,-10.6875,-14.5,0
12790,-13.6875,-16.0625,-20.625,0
12820,-20.25,-14.375,-17.875,0
12840,-26.9375,-11.375,-15.6875,0
12860,-20,-8.4375,-17.625,0
12880,-10.25,-4.5625,-20,0
12900,-13.1875,-4.625,-22.25,0
12920,-18.1875,-7.1875,-24.4375,0
12940,-21.6875,-5.5625,-22.75,0
12960,-18.4375,-2.5625,-24.6875,0
12980,-13.5,-0.625,-22.1875,0
13000,-8.4375,-1.3125,-15,0
13020,-11.5,-4.125,-13.25,0
13040,-13.875,-3.375,-10.375,0
13060,-6.4375,-0.1875,-10.6875,0
13080,-4.5,0.4375,-1.5,0
13100,-6.875,-1.9375,0.9375,0
13120,-6.5625,0.9375,-3.625,0
13140,-7.125,2.1875,-0.9375,0
13160,-13.9375,0.8125,1.0625,0
13180,-20.125,-0.6875,2.625,0
13200,-21.125,-1.1875,2.9375,0
13220,-21.125,-2.6875,1.6875,0
13240,-18.4375,-0.3125,0.25,0
13260,-18.75,-1.25,3.375,0
13280,-19.125,-4.0625,-0.5,0
13300,-16.5625,-4.25,-5.1875,0
13320,-14.375,-0.5,-2.6875,0
13340,-18.875,0,4.125,0
13360,-20.9375,3.375,4.5625,0
13380,-28.625,-8.1875,2.0625,0
13400,-33.9375,-18.6875,-2.75,0
13420,-22.6875,-19.3125,-24.8125,0
13440,-11.125,-16.8125,-18.375,0
13460,-0.1875,-11.875,-15.3125,0
13480,1.8125,-8.375,-4.0625,0
13500,7.1875,-9.0625,1.6875,0
13520,5.4375,-15.8125,-7.6875,0
13540,-3.75,-20.5625,-4.875,0
13560,-2.1875,-14.4375,-10.3125,0
13580,12.5625,-3.5625,-6.625,0
13600,17.375,0.75,-3.125,0
13620,10.5625,-0.75,-5.6875,0
13640,6.8125,4.3125,-4.5625,0
13660,9.3125,7.3125,-6,0
13680,7.5,5.25,-12.3125,0
13700,3,4.125,-15.8125,0
13720,2.6875,3.8125,-18.125,0
13740,6.1875,1.3125,-16.6875,0
13760,5.3125,-0.375,-11.5,0
13780,-0.9375,-5.375,-1.8125,0
13800,-1.6875,-6.1875,-6.25,0
13820,2.875,-6.9375,-6.875,0
13840,6.625,-1.25,-0.875,0
13860,8.3125,2.5,3.5,0
13880,11.625,1.4375,-12.4375,0
13900,18.5625,-2.8125,-20.5625,0
13920,19.3125,-0.9375,-18.3125,0
13940,8,5.25,2.1875,0
13960,6.75,6.8125,7.8125,0
13980,10.8125,3.9375,7.5,0
14000,9.5625,6.625,4.5625,0
14020,7.8125,6.5625,14.4375,0
14040,2.5,7.8125,23.4375,0
14060,5.5,8.1875,25.375,0
14080,9.5,10.625,22.25,0
14100,9.125,8.4375,18.125,0
14120,6.875,9.1875,15,0
14140,8.625,10.625,12.9375,0
14160,12.125,11.75,13.125,0
14180,9.625,10.8125,14.6875,0
14200,7,12.3125,16.625,0
14220,6,10.75,16.3125,0
14240,6.4375,10.75,14.875,0
14260,8.625,9.75,9.1875,0
14280,11.5625,7.625,4.375,0
14300,14.1875,4.8125,0,0
14320,13.1875,3.5625,-2.0625,0
14340,13.5,-1.125,-7.5,0
14350,16.5,-2.1875,-9,0
14370,19.125,-1.625,-6.75,0
14390,17.125,-4.875,-5.8125,0
14410,14.5,-8.75,-7.25,0
14430,13.75,-8.8125,-2.6875,0
14450,12.9375,-8.0625,5.4375,0
14470,15,2.6875,5.125,0
14490,9.5,-1.875,17.4375,0
14510,12,5,13.75,0
14530,7.125,2.6875,2.5,0
14550,9,-11.1875,-9.625,0
14570,10.5,-17.75,-12.125,0
14590,9,-16.4375,-10.375,0
14610,4.375,-8.75,-5,0
14630,6.8125,-14.375,-6.625,0
14650,-0.5625,-10.8125,-5.4375,0
14670,-0.6875,-8.5,-6.0625,0
14690,-4.1875,-7.4375,1.9375,0
14710,-0.4375,-5.0625,6.75,0
14730,0.9375,-1.1875,10.75,0
14750,1.8125,-0.8125,9.3125,0
14770,1.5,-5.25,11.875,0
14790,5.1875,-8.9375,1.5,0
14810,3.0625,-9.0625,-7.1875,0
14830,7,-11.1875,-11.8125,0
14850,7,-11,-11.125,0
14870,3,-6.3125,-8.125,0
14890,1.0625,-5.9375,-7.9375,0
14910,-1.375,-7.125,-6.5625,0
14930,-1.0625,-5.8125,-4.125,0
14950,-1.8125,-3.5625,3.375,0
14970,-4.4375,-0.8125,8.1875,0
14990,-4.75,-3.5,6.875,0
15010,-5.0625,-2.0625,6.25,0
15030,-3.1875,-2.0625,6.625,0
15050,-2.75,-1.4375,5.4375,0
15070,-2.875,-2.375,3.625,0
15090,-2.4375,-3.5625,1.75,0
15110,-1.3125,-3.125,1.4375,0
15130,-2.125,-2.25,3.3125,0
15150,-2.625,-2.375,1.75,0
15170,-1.25,-1.75,3.0625,0
15190,-0.4375,-2.1875,3.4375,0
15210,-0.5,-2.125,5.3125,0
15230,-0.0625,-1.4375,5.5625,0
15250,1.8125,-0.625,2.8125,0
15270,2.25,-0.875,1.3125,0
15290,2.125,-1.4375,-0.125,0
15310,3.8125,-2.5625,-2.75,0
15330,1.6875,-4.375,-5.75,0
15350,1.6875,-4.3125,-9.75,0
15370,0.5,-1.6875,-8.6875,0
15390,-0.0625,1.3125,-2.75,0
15410,-1.1875,1.4375,2.75,0
15430,-2.6875,1.625,4.375,0
15450,-4.5625,4.6875,4.8125,0
15470,-3.3125,3.625,2.3125,0
15490,-2.1875,1.375,-2.8125,0
15510,-1.9375,0.8125,-1.9375,0
15530,-4.9375,-3.75,0.25,0
15550,-0.125,-3.375,-3.0625,0
15570,-0.3125,-6.625,-6,0
15590,0.25,-7,-4.4375,0
15610,-1.0625,-5,-5.8125,0
15630,-2.0625,-3.6875,-6.1875,0
15650,-2.875,-5.375,-2.6875,0
15670,0.5625,-1.5,1.75,0
15690,-3.5,-1.0625,2.25,0
15710,-7,-4.5,-1.375,0
15730,-6.375,-3.75,-1.125,0
15750,-4.375,-2.5625,0.1875,0
15770,-4.875,-5.75,1,0
15790,-3,-6.4375,-2.6875,0
15810,-0.3125,-6.875,-4.1875,0
15830,1.1875,-9.0625,-6.3125,0
15850,3.1875,-8.5,-6.25,0
15870,4,-5.8125,-7,0
15890,8.125,-5.125,-11.5625,0
15910,7.3125,-4.0625,-8.625,0
15930,3.375,-2.375,-4.25,0
15950,-3.4375,-1.25,1.1875,0
15970,-2.9375,0.4375,-1.25,0
15990,-6.3125,-0.125,-2.0625,0
16010,-9.6875,1.75,-0.875,0
16030,-10.3125,2.625,2.0625,0
16050,-7.0625,4.8125,-0.125,0
16070,-6.0625,6.625,-1.8125,0
16090,-11.3125,2.6875,4.875,0
16110,-10.3125,3.875,5.1875,0
16130,-9.25,3.5,0.4375,0
16150,-10.4375,-0.1875,-0.0625,0
16170,-14.0625,-4.375,4,0
16190,-15.25,-0.5625,9.25,0
16210,-11.0625,-1.5,7.625,0
16230,-13.1875,-2.8125,2.0625,0
16250,-13.8125,-5.375,5.125,0
16270,-8.4375,-4,5.875,0
16290,-6,-7.125,-2.9375,0
16310,-8.5625,-8.6875,-0.3125,0
16330,-0.1875,-1.3125,3.625,0
16350,-1.4375,-3.25,6.3125,0
16370,-1.5625,-7,0.375,0
16390,-5.3125,-9.125,-5.8125,0
16410,0.5,-1.625,-11.6875,0
16430,1.3125,0.875,-10.9375,0
16450,4.4375,3.4375,-9.0625,0
16470,4.5625,0.4375,-2.6875,0
16490,4.3125,-1.75,1.6875,0
16510,0.125,-1.875,-0.1875,0
16530,-1.875,-4.25,-3.6875,0
16550,2.5625,-2.6875,-5.8125,0
16570,2.9375,-1.1875,-0.0625,0
16590,0.3125,-1.375,2.125,0
16610,-1.6875,-1.3125,0.8125,0
16630,0.6875,0.5,0,0
16650,0.75,1.9375,1.875,0
16670,-0.125,2.6875,4.1875,0
16690,0.3125,4.3125,3.5,0
16710,1.1875,4,1,0
16730,0.6875,3.875,1.75,0
16750,5.1875,3.8125,-3.0625,0
16770,1.875,0.25,-4,0
16790,-1.5625,1.9375,-4.25,0
16810,-1.3125,2.5,-5.375,0
16830,-0.75,7.125,-2.25,0
16850,1.3125,5.875,0.375,0
16870,0.5625,3.375,2.625,0
16890,-3.5,2.875,1.125,0
16910,-1.0625,0.0625,-3.5,0
16930,2.625,2.8125,-7.5625,0
16950,1.5625,0.9375,-2.4375,0
16970,1.6875,-0.5,1.5625,0
16990,4.8125,0.625,-0.3125,0
17010,0.375,0.625,5.3125,0
17030,5.4375,-1.9375,-1.3125,0
17050,2.6875,-3.125,-0.4375,0
17070,4.4375,0.4375,-2.375,0
17090,0.5625,-0.1875,-0.5,0
17110,2.9375,-0.375,0.125,0
17130,2.5,0.4375,4.375,0
17150,4.25,2.75,1.75,0
17170,1.5,-0.9375,2.3125,0
17190,2.625,1.4375,-0.0625,0
17210,4.4375,-1.25,1.25,0
17230,2,-1.3125,5.5625,0
17250,4.6875,-0.3125,-2.625,0
17270,3,-4.75,0.9375,0
17290,5.5,-3.875,0.375,0
17310,4.9375,-5.3125,1.4375,0
17330,4.125,-7,-3.3125,0
17350,2.6875,-7.6875,-5.5625,0
17370,3.1875,-4.1875,-3.1875,0
17390,4.8125,-4.1875,-0.9375,0
17410,1.5625,-3.125,-3.375,0
17430,-4,-2.625,-2.4375,0
17450,-1.25,0.3125,1.9375,0
17470,-1.375,2.625,3.125,0
17490,-4.0625,2.25,3.9375,0
17510,-1.875,0.8125,2.0625,0
17530,-0.1875,-0.875,-3.125,0
17550,1.375,-2.875,-6.875,0
17570,1.375,-3.8125,-7.6875,0
17590,2.0625,-2.75,-8.625,0
17610,2.3125,-1.1875,-8.875,0
17630,1,1.3125,-4.125,0
17650,-2.125,2.6875,2.75,0
17670,-1.4375,3.9375,7.8125,0
17690,-1.1875,2.1875,7.875,0
17710,-3.5,3.8125,1,0
17720,-12.0625,-0.125,-1.25,0
17740,-18.875,-0.4375,7.625,0
17760,-12.25,-0.875,7.8125,0
17780,-11,3.9375,12.25,0
17800,-9.8125,1.5625,9.5,0
17820,-15.0625,-0.0625,5.25,0
17840,-13.5625,0.8125,5.75,0
17860,-8.125,6.1875,7.0625,0
17880,-3.5625,2.5,7.25,0
17900,-3.75,3.6875,-0.25,0
17920,-4.4375,1.875,-0.5625,0
17940,0.0625,4.3125,0.125,0
17960,2.625,3.3125,1.125,0
17980,-2.125,2.375,3.125,0
18000,0.8125,0.0625,-0.375,0
18020,2.125,-0.375,4.5,0
18040,5,-0.8125,5.75,0
18060,2.5,-4.375,4,0
18080,0.625,-6.5,3.3125,0
18100,3.25,-6.875,0.8125,0
18120,3,-7.6875,2.625,0
18140,2.0625,-3.875,2.0625,0
18160,2.25,-9.75,1.1875,0
18180,2.5625,-5,1.5625,0
18200,-0.9375,-5.3125,0.75,0
18220,1.1875,-5.9375,-1.375,0
18240,-1.125,-2.9375,-3.3125,0
18260,-3.625,-0.25,2.1875,0
18280,-0.0625,0.375,6.125,0
18300,-0.25,2.0625,6.5,0
18320,-2.75,1.25,5.25,0
18340,-2.5,0.0625,5.0625,0
18360,2.375,0.0625,1.5,0
18380,3.4375,-0.9375,-2.5625,0
18400,1.625,-3.75,-1.5625,0
18420,2.25,-3.25,-0.25,0
18440,1,-2.75,1.625,0
18460,-1.5,-3.0625,2.8125,0
18480,-5.4375,2.375,10.6875,0
18500,-5.875,7.3125,24.375,0
18520,-12.3125,4.3125,29.75,0
18540,-19.3125,3.0625,20.9375,0
18560,-16.5625,3.625,17.6875,0
18580,-12.3125,4.1875,20.1875,0
18600,-7.3125,3.75,19,0
18620,-10.875,0.9375,22.75,0
18640,-11.1875,0,23.875,0
18660,-8.4375,-2.8125,21.625,0
18680,-10.25,-6.625,17.875,0
18700,-11.0625,-9,16.9375,0
18720,-15.5625,-7.8125,21.8125,0
18740,-9.625,-6.375,25.6875,0
18760,-7.6875,-6.1875,27.5625,0
18780,-8.625,-5.25,32.0625,0
18800,-11.4375,-12,43,0
18820,13.375,-14.75,44.3125,0
18840,19.625,0.125,20.1875,0
18860,-6.9375,0.6875,6.1875,0
18880,-24,4.25,-5.75,0
18900,-17.9375,4.9375,-7.75,0
18920,-14.625,3.0625,4.375,0
18940,-4.75,1.125,7.625,0
18960,-7.3125,6.25,-0.0625,0
18980,-12.6875,3.75,3.1875,0
19000,-8.0625,1.875,2.9375,0
19020,-4,3.375,0,0
19040,-9,1,0.4375,0
19060,-7.0625,1.5,0.4375,0
19080,-7.3125,1.1875,-6.6875,0
19100,-5.875,-2.5625,-8.3125,0
19120,-10,2.25,-11.1875,0
19140,-0.375,1,-17.75,0
19160,8.1875,-3.6875,-24.25,0
19180,7.9375,-5.5,-27.25,0
19200,2.125,-3.875,-27.9375,0
19220,1.3125,-6.8125,-20.4375,0
19240,1.6875,-10.75,-11.3125,0
19260,-0.8125,-9.375,-8.25,0
19280,-0.375,-8.8125,-6.1875,0
19300,-0.25,-12.75,-5,0
19320,0.125,-17.75,3.5625,0
19340,9.5,-18.125,11.875,0
19360,5.625,-19.8125,5.4375,0
19380,0.125,-26,-3.75,0
19400,-2.25,-32.6875,-11.3125,0
19420,8.125,-28.875,-12.875,0
19440,-2.1875,-27.5,-14.8125,0
19460,-16.5625,-34,-16.375,0
19480,-7.25,-34.375,-17.625,0
19500,-13.8125,-30,-7.8125,0
19520,-38.9375,-32.125,7.625,0
19540,-29.8125,-29.0625,12,0
19560,-20.625,-28.4375,15.6875,0
19580,-20.25,-26.875,18,0
19600,-15.1875,-24.0625,21.875,0
19620,-11.5625,-18.4375,23.3125,0
19640,-8.0625,-11.8125,13.9375,0
19650,-5.0625,-7.75,10.625,0
19680,-1.625,-4.4375,7.9375,0
19690,0.3125,-5.375,5.375,0
19710,-0.0625,-6.0625,2.375,0
19730,2.875,-7.75,5.625,0
19750,6.125,-8.625,8.4375,0
19770,6.0625,-9.25,10.75,0
19790,1.75,-12.5625,10.9375,0
19810,6.3125,-11.4375,6.875,0
19830,13.8125,-12.25,7.25,0
19850,7.3125,-16.375,13.125,0
19870,3.3125,-10.6875,9.875,0
19890,3.9375,-8.3125,0.5,0
19910,3.4375,-8.25,1.625,0
19930,4.6875,-7.75,7.625,0
19950,4.3125,-10.3125,5.5,0
19970,9.0625,-9.9375,-3.375,0
19990,13.875,-7.8125,-10.5625,0
20010,15,-4.8125,-11.9375,0
20030,11.125,-6.1875,-13.75,0
20050,9.3125,-6.5,-15.125,0
20070,8.625,-4.625,-12.25,0
20090,6.125,-1.5625,-7.375,0
20110,3.75,-0.75,-7.75,0
20130,6,-0.6875,-9.8125,0
20150,3.25,-0.4375,-7.625,0
20170,-0.25,-0.5,-4.375,0
20190,-0.0625,1.4375,-4.4375,0
20210,1.3125,-0.125,-5.75,0
20230,-1.375,-0.125,-5.5,0
20250,-2.8125,1.75,-3.4375,0
20270,-5.375,4.5,-5.5625,0
20290,-0.5625,5.125,-7.4375,0
20310,-0.9375,3.3125,-8.625,0
20330,-1.8125,5.0625,-9.25,0
20350,-1.4375,8.0625,-6.6875,0
20370,2.375,9.5,-12.625,0
20390,14.625,8.5625,-15,0
20410,27.5625,21.1875,-19.875,0
20430,28.25,32.625,-9,0
20450,10.375,28.125,13.9375,0
20470,1.875,19.1875,1.3125,0
20490,3,18.8125,-2.875,0
20510,2.1875,20.9375,5,0
20530,-3.1875,17.125,11,0
20550,-8,10.6875,9,0
20570,-5.9375,9.375,1.625,0
20590,-0.375,10.6875,7.1875,0
20610,9.125,5.4375,-6.1875,0
20630,3.0625,3.5625,-12.75,0
20650,-4.375,0.9375,-15.5625,0
20670,-3.125,-3.625,-17.625,0
20690,-5.5625,0.3125,-13.375,0
20710,-6.5625,-1.0625,-14.0625,0
20730,-8.3125,-2.5,-14.875,0
20750,-11,2.125,-5.9375,0
20770,-9.8125,11.375,0.0625,0
20790,-1.6875,23.9375,-5.75,0
20810,1.9375,14.25,-8.5,0
20830,0.375,5.875,-5.75,0
20850,1.625,4.3125,-0.1875,0
20870,12.25,3.4375,1.875,0
20890,18.0625,3.3125,-2.125,0
20910,12,0.5,-13.25,0
20930,12.375,9.75,-18.25,0
20950,26.625,16.3125,-9.8125,0
20970,28.4375,8.8125,-9.4375,0
20990,18.625,1.25,-14.3125,0
21010,15.1875,3.375,-13.625,0
21030,15.75,-0.3125,-13.375,0
21050,13.3125,-4,-9.75,0
21070,7.375,-2.5625,-7.5,0
21090,5.8125,-2.9375,-3.9375,0
21110,6.1875,-7.875,-1.1875,0
21130,7.9375,-11.1875,-1,0
21150,10.8125,-8.25,-1.125,0
21170,13,-7.5,1.125,0
21190,15.25,-10.75,-3.6875,0
21210,16.9375,-12.125,-6.5,0
21230,14.625,-12.0625,-7.625,0
21250,10.5,-12.5,-12.75,0
21270,15.1875,4.4375,-23.75,0
21290,7.4375,14.9375,-22,0
21310,8.25,27.5,-24.5,0
21330,15.1875,42.0625,-33.9375,0
21350,12.5,61.0625,-35.9375,0
21370,12.75,81.6875,-35.9375,0
21390,19.6875,103.25,-36.6875,0
21410,24.5,122.625,-34.0625,0
21430,24.875,151.625,-40.4375,0
21450,41.375,189.438,-31.6875,0
21470,63.25,194.812,-19.5625,0
21490,61.9375,200.625,-20.3125,0
21510,36.125,203,-12.25,0
21530,33.5,210.125,-4.125,0
21550,47.4375,221.938,4.375,0
21570,51.125,212.125,17.8125,0
21590,46.5625,191.938,17,0
21620,45.125,181.812,10.4375,0
21650,25.375,131.188,11.8125,0
21670,28.5625,101.875,13.5625,0
21690,31.25,74.5,14.0625,0
21710,25.0625,36.6875,5.1875,0
21730,13,7.4375,-2.125,0
21750,-1.9375,-17.9375,-4.875,0
21770,-13.75,-41.4375,-16.3125,0
21790,-12.6875,-66.375,-25.875,0
21810,-19.125,-93.375,-26.125,0
21830,-24.75,-117.188,-25.625,0
21850,-22.5,-143.812,-21,0
21860,-20.9375,-174.875,-13.5625,0
21880,-21.125,-202.938,-3.5625,0
21900,-23.5,-214,4.5625,0
21920,-23.0625,-229.5,13.4375,0
21940,-26.375,-241.438,16.3125,0
21960,-29.8125,-237.062,14.0625,0
21980,-24.0625,-228.188,21.25,0
22000,-21.6875,-211.75,19.25,0
22020,-20,-186.5,17.5,0
22040,-28.5625,-158.875,23.6875,0
22060,-27.3125,-130.5,26.1875,0
22080,-16.9375,-98.125,21.75,0
22100,-8.875,-67.1875,24.125,0
22120,-3.875,-42.9375,27.8125,0
22140,0.75,-18.9375,26.4375,0
22150,9.6875,15.1875,16.125,0
22170,14.625,27.1875,17.5,0
22190,10.4375,31.375,19.6875,0
22210,10.5625,24.5,9.5,0
22230,17.6875,13.9375,-2,0
22250,14.4375,-1.0625,-9.3125,0
22270,8.1875,-7.8125,-9.6875,0
22290,10.5625,-9.0625,-5.5625,0
22310,11.5,-5.8125,2.75,0
22330,17.875,0.5625,5.0625,0
22350,9.6875,7.3125,12.6875,0
22370,6.0625,12.875,26.0625,0
22390,13.5625,16.125,20.25,0
22410,8.125,13.5625,9.5,0
22430,0,8.6875,-2.8125,0
22450,3,9.875,-6.9375,0
22470,18.0625,13.875,2.625,0
22490,15.625,15.6875,8.1875,0
22510,9.8125,19.1875,7.9375,0
22530,11.0625,18.8125,8.5,0
22550,15.625,17.4375,11.0625,0
22570,16.625,13.1875,5.375,0
22590,9.875,2.75,-1.625,0
22610,8.8125,-4.75,-4.5625,0
22630,10.25,-0.9375,-5.0625,0
22650,12.9375,-4.9375,-11.375,0
22670,11.8125,-12.0625,-10.9375,0
22690,1.75,-11.5,-8,0
22710,-1.1875,-12.375,-8.3125,0
22730,2.5,-15.4375,-5,0
22750,3.3125,-11.625,-0.1875,0
22770,1.6875,0.25,5.1875,0
22790,2,0,11.5,0
22810,5.125,-3.9375,10.9375,0
22830,5.8125,1.5625,7.375,0
22850,5.875,7.875,8.4375,0
22870,4.3125,11.875,7.3125,0
22890,9.9375,14.125,1.625,0
22910,14.5625,13.625,0.375,0
22930,7.1875,11.125,2.5,0
22950,0.625,10.5,3.25,0
22970,-0.875,10.5625,5.5625,0
22980,-5,7.25,7.9375,0
23000,-4.25,8.5625,6.3125,0
23020,-2.8125,9.6875,6,0
23040,-6.875,9.125,6.125,0
23060,-8.25,7.25,1.375,0
23080,-8.6875,3.25,-5.625,0
23100,-4.875,2.9375,-7.25,0
23120,-4.0625,3.9375,-8.3125,0
23140,-5.75,8.125,-8.4375,0
23160,-7.5625,11.5,-13.5625,0
23180,-8.6875,15.6875,-15.75,0
23200,-7.1875,22.1875,-12.8125,0
23220,-5.875,26.3125,-10.875,0
23230,-4.6875,30.5,-13.3125,0
23250,-6.5,36.625,-16.5,0
23270,-1.6875,41.375,-19.875,0
23300,-2.0625,48.5,-21.75,0
23320,-2.4375,53.5,-25.5625,0
23340,2.25,59.5625,-26.25,0
23360,6,66.4375,-26.1875,0
23380,6.875,75.5625,-28.25,0
23400,4.6875,87.0625,-30.75,0
23420,6.5,95.125,-29.9375,0
23440,9.5,102.5,-29.4375,0
23460,10.125,116.125,-28.5625,0
23480,10,127.312,-25.5625,0
23500,11.5625,133.062,-23.8125,0
23520,15.8125,139.312,-23.5625,0
23540,18.875,141.625,-16.25,0
23560,16.6875,141.188,-8.3125,0
23580,16.75,138.438,1.25,0
23600,19.125,134.062,6.5,0
23620,21.75,124,15.125,0
23640,20.375,115,22.0625,0
23660,17.125,112.688,28.9375,0
23680,18.5625,108.5,33.8125,0
23700,14.6875,97.6875,35.25,0
23720,13.9375,92.4375,39.8125,0
23740,10.875,91.1875,47.1875,0
23760,11.1875,88.25,50.6875,0
23780,13.75,81.1875,47,0
23800,11.6875,74.6875,45.375,0
23820,11,71.125,45.4375,0
23840,19.125,67.75,50.625,0
23860,23.5625,58.6875,54.875,0
23880,20.75,51.25,48.1875,0
23900,20.5625,52.1875,47.75,0
23920,20.1875,61.5,51.25,0
23940,19.3125,67.625,55.375,0
23960,10.4375,62.125,53.5,0
23980,2.375,63.6875,49.0625,0
24000,-0.9375,71.1875,52.6875,0
24020,-7.8125,76.5625,57,0
24040,-16.875,74.25,44.75,0
24060,-24.1875,76.5,35,0
24080,-28.5,85,30.75,0
24100,-23.5,100.375,38.875,0
24120,-27.0625,107.562,39,0
24140,-35.8125,105,27.6875,0
24160,-42.75,107.625,24.125,0
24180,-43,107.438,30.5,0
24200,-41.3125,96.375,22.6875,0
24220,-35.625,83.9375,13.1875,0
24240,-29.5,77.875,21.4375,0
24260,-22.0625,75.0625,22.3125,0
24280,-8.875,63.3125,5.5625,0
24300,17.4375,40.375,-13.5625,0
24320,44.875,17.75,-7.625,0
24340,69.375,0.3125,-1.5625,0
24360,63.4375,-10.75,-5.875,0
24380,41.75,-25.3125,-15.1875,0
24400,24.125,-41.4375,-21.5,0
24420,22.1875,-53.625,-17.75,0
24440,15.1875,-68.3125,-17.8125,0
24450,10.625,-83.875,-23.8125,0
24470,9.0625,-98.1875,-26.25,0
24490,13.125,-109.312,-22.6875,0
24510,14.75,-117.812,-20.125,0
24530,17.5625,-124.25,-21.5625,0
24550,12.8125,-127.062,-23.0625,0
24570,9.4375,-123.5,-19.4375,0
24590,4.875,-117.562,-13.375,0
24610,-3.625,-112.5,-10.9375,0
24630,-11.5625,-106.938,-5.9375,0
24650,-17.3125,-97,2.0625,0
24670,-24.375,-86.3125,0.4375,0
24690,-30.9375,-76.6875,-1.125,0
24710,-44.4375,-66.4375,2.625,0
24730,-47.125,-55.375,4.25,0
24750,-44.25,-43.8125,3.5,0
24770,-30.25,-36.3125,5.3125,0
24790,-20.625,-29.875,6.5,0
24810,-16.6875,-25.6875,10.5,0
24830,-9.875,-22.4375,9.0625,0
24850,-6,-17.875,6.125,0
24870,-14.4375,-14.8125,11.0625,0
24890,-27.1875,-12.25,14.75,0
24900,-28.5625,-7,15.625,0
24920,-27.0625,-2.875,15.375,0
24940,-18.3125,-1.875,13.3125,0
24960,-10.5,-0.8125,9,0
24980,-3.4375,0.625,10,0
25000,-0.125,3.625,12.25,0
25020,-1.8125,5.5625,8.4375,0
25040,-5.0625,6.5625,3.5625,0
25060,-5.125,6.875,3,0
25080,-0.5,8.1875,5.0625,0
25100,6.25,7.1875,3.6875,0
25120,7.4375,4.1875,1.5625,0
25140,4.5,3.25,2.875,0
25160,-0.75,3.875,3.8125,0
25180,-1.9375,3.1875,2.5625,0
25200,-0.75,0.5,2.6875,0
25220,-0.5625,-1.5625,3.875,0
25240,-0.3125,-1.5625,5.6875,0
25260,-2.125,-1.0625,4.875,0
25280,-4.125,-1.1875,3.375,0
25300,-4.75,-1,2.75,0
25320,-1.1875,-0.9375,2.3125,0
25340,2.5625,-1.1875,1.5,0
25360,4.8125,-1.3125,1.6875,0
25380,4.9375,-1.125,2.3125,0
25400,6.75,-1.625,0.5,0
25420,7.375,-1.625,1.0625,0
25440,8,-1.9375,1.8125,0
25460,3.6875,-2.5,2.125,0
25480,1.75,-1.5625,2.5625,0
25500,3.125,-0.875,1.75,0
25520,3.5,-0.6875,2.5,0
25540,2.9375,0.0625,2.5625,0
25560,1.125,0.5,1.4375,0
25580,0.9375,0.375,0.4375,0
25600,1.75,-0.0625,-0.8125,0
25620,3.3125,0.625,-1.9375,0
25640,5.6875,1.125,-3.375,0
25660,9,-0.3125,-4.5625,0
25680,10.375,-1,-3.75,0
25700,10.3125,-1.9375,-3.1875,0
25720,8.1875,-1.6875,-2.8125,0
25740,8.875,-1,-2.9375,0
25760,10.4375,0.375,-6.1875,0
25780,11.5625,1.1875,-7.8125,0
25800,14.1875,-0.9375,-8.25,0
25820,17.25,-5.4375,-9.8125,0
25840,19.0625,-10.125,-8.5625,0
25860,15.875,-12.125,-9.4375,0
25880,15.375,-11.0625,-13.8125,0
25900,17,-8.5625,-14.125,0
25910,17.8125,-6.125,-14.25,0
25930,19.5,-2.0625,-15.0625,0
25950,17.3125,1.6875,-15.25,0
25970,14.25,4.125,-14.1875,0
25990,11.5625,2.75,-11.5,0
26010,5.25,0.3125,-8,0
26030,6.375,-0.625,-6.0625,0
26050,6.625,-1.75,-1.25,0
26070,1.8125,-4.4375,3.625,0
26090,-3.0625,-6.4375,7.1875,0
26110,-4.5,-6.4375,8.125,0
26130,-1,-5.6875,8.0625,0
26150,1.3125,-5.8125,9.875,0
26170,3.625,-4.875,10.1875,0
26190,5.625,-2.875,8.6875,0
26210,2.1875,-2.5,8,0
26230,1.375,-1.875,6.5625,0
26250,2.1875,-0.625,6.125,0
26270,3.875,1.1875,6,0
26290,4.875,1.75,6.4375,0
26310,3.375,2.0625,5.5,0
26330,4.3125,2.125,5.4375,0
26350,4.375,1.875,6.875,0
26370,3.4375,1.8125,7.3125,0
26390,2.1875,2,6.9375,0
26410,0,1.75,5.75,0
26430,-0.5625,1.5625,4.875,0
26450,1.125,1.25,4.5625,0
26470,2.375,-1,3.375,0
26490,1.125,-2.4375,4.0625,0
26510,0.6875,-2.375,3.25,0
26530,1.625,-2.3125,0.9375,0
26550,2.8125,-2.625,1.0625,0
26570,4.5625,-2.8125,1.25,0
26590,4.9375,-2.75,0.5625,0
26610,2.5625,-2.25,1.3125,0
26630,0.25,-2.375,1,0
26650,-0.8125,-2.375,0.75,0
26670,-1.5625,-1.875,1.3125,0
26690,-1.3125,-1.9375,1.25,0
26710,-0.375,-1.5,0.75,0
26730,-0.5625,-1.9375,0.9375,0
26750,-2,-2.125,0.4375,0
26770,-2.6875,-1.1875,-1.125,0
26790,-2.4375,-0.4375,-1.6875,0
26810,0.375,-0.125,-1.625,0
26830,0.5625,0.125,-2.4375,0
26850,1.5,1.375,-2.75,0
26870,0,2.875,-2.5625,0
26890,-1.8125,3.375,-2.3125,0
26910,-0.75,3.375,-1.6875,0
26930,0.9375,3.5,0.125,0
26950,0,2.375,1.1875,0
26970,-0.1875,2.125,1.125,0
26990,0.0625,2,1.6875,0
27010,-1.125,1.375,0.75,0
27030,1.125,1.625,0.625,0
27050,2.6875,1.75,0.875,0
27070,1.3125,0.75,1.8125,0
27090,1.375,-0.1875,1.4375,0
27110,1.625,-0.75,1.8125,0
27130,1.625,-1.8125,2.875,0
27150,0.875,-2.9375,3.25,0
27170,-0.0625,-3.125,1.9375,0
27190,1.4375,-3.625,2.0625,0
27210,-0.25,-4.125,2.8125,0
27230,-2.0625,-4.25,1.8125,0
27250,-1.6875,-3.8125,0.0625,0
27270,-2.4375,-3.875,-0.3125,0
27290,-2.25,-3.9375,-1.0625,0
27310,-2.8125,-3.875,-2.75,0
27330,-1.5625,-3.5625,-2.5,0
27350,-2.3125,-3,-3.3125,0
27370,-0.6875,-1.9375,-4.0625,0
27390,0.6875,-0.375,-4.5625,0
27410,2.25,1.5625,-4.6875,0
27430,3.9375,3.125,-4.0625,0
27450,3.125,3.125,-4.875,0
27470,2.75,3.3125,-4.875,0
27490,2.125,4.25,-3.9375,0
27510,2.9375,4,-2.625,0
27530,1.5,2.8125,-2.8125,0
27550,0.8125,2.5625,-2.0625,0
27570,0.8125,2.625,-1.6875,0
27590,1.5,2.875,-1.75,0
27610,3.5,3.4375,-2.25,0
27630,2.5625,2.375,-3.5625,0
27650,0.5,0.0625,-3.4375,0
27670,-0.0625,-0.3125,-2.6875,0
27690,0.875,-0.625,-2.1875,0
27710,0.125,-1.4375,-2.625,0
27730,-1.9375,-2.8125,-1.8125,0
27750,-3.6875,-4.5625,-1.125,0
27770,-3.625,-5.3125,-2,0
27790,-2.5,-5.4375,-2.8125,0
27810,-6.5,-6.9375,-2.75,0
27830,-6.25,-6.1875,-3.4375,0
27850,-2.875,-3.6875,-3.75,0
27870,-2.875,-2.75,-2.6875,0
27890,-4.4375,-2.9375,-1.4375,0
27910,-3.5625,-2.625,0.5625,0
27930,-4.375,-1.875,3.25,0
27950,-10.125,-3.4375,5.1875,0
27970,-11,-3.0625,8.75,0
27990,-7.5625,-0.1875,9.875,0
28000,-5.5625,-0.1875,10,0
28040,-6.875,-0.6875,11.9375,0
28060,-6.0625,1.6875,8.5625,0
28080,-1.375,2.1875,5.75,0
28100,1.5,0.3125,4.75,0
28120,2.9375,-1.25,1.75,0
28140,3.75,-0.5,0,0
28160,4.1875,1,0.125,0
28180,3.9375,1.75,-0.25,0
28200,1.9375,2.3125,0.5,0
28220,2.125,3.5,0.5,0
28240,2,3.6875,-0.1875,0
28250,1.3125,2.1875,-0.25,0
28270,2.125,1.3125,-0.3125,0
28290,2.9375,0.875,-0.5,0
28330,0.25,0.125,-0.375,0
28350,1,0.3125,-0.8125,0
28370,1.375,1,-1.1875,0
28390,-0.25,-0.1875,-2,0
28420,-0.375,1.6875,-2.75,0
28440,0.0625,1.9375,-3.3125,0
28460,-0.5625,-0.0625,-2.625,0
28480,0.0625,-0.6875,-0.9375,0
28500,1.375,-0.0625,-1.6875,0
28520,1.875,-1.1875,-0.25,0
28540,-0.0625,-2.25,1.75,0
28560,-0.25,-1.8125,4.125,0
28580,-1.125,-2.0625,4.4375,0
28600,-2.875,-2.625,4.625,0
28620,-3,-2.1875,4.8125,0
28640,-1.8125,-2.25,3.0625,0
28660,0.9375,-1.875,0,0
28680,1.75,-1.1875,-1.1875,0
28700,3.125,-0.0625,-2.875,0
28720,3.625,0.5,-4,0
28740,3.375,1.6875,-4.9375,0
28760,1.75,4.0625,-4.5625,0
28780,2.75,5.875,-3.875,0
28800,-0.875,6.3125,-3.5625,0
28820,-6.25,6.1875,-2.25,0
28840,-8,7.3125,-2,0
28880,-11.875,7.625,-2.0625,0
28900,-12.625,7.1875,-3.125,0
28920,-11,7.1875,0.0625,0
28940,-10,5.375,0.5625,0
28960,-6.625,4.875,-3.125,0
28980,-2.0625,4.625,-3.125,0
29000,-0.6875,1.625,1.5,0
29020,-2.875,-3.0625,2.8125,0
29040,4.5625,-2.625,0.875,0
29060,15.0625,-0.4375,2.3125,0
29080,11.6875,-2.9375,5.3125,0
29100,6.875,-3.875,8.1875,0
29120,3.5625,-1.5625,7.25,0
29140,-5.25,-0.125,6.9375,0
29160,-7.5625,-1.5625,10.875,0
29180,-2.625,-1.8125,11.4375,0
29200,-3.5,-2,6.75,0
29220,-2.75,-2.1875,4.125,0
29240,-3.375,-3.0625,2.75,0
29260,-3.4375,-2.0625,-0.0625,0
29280,-0.6875,-1.4375,-2.0625,0
29300,2,-1.4375,-2.125,0
29320,1.75,0.6875,-1.3125,0
29340,3,1.25,-1.625,0
29360,4.875,0.6875,-5.375,0
29380,6.4375,-0.0625,-2.375,0
29400,6.9375,0.875,2.875,0
29420,2.25,0.125,3.25,0
29440,-2.75,-1.75,3.5,0
29460,-4.4375,-2.4375,4.875,0
29480,-2.125,-1.625,6.4375,0
29500,-1.5,-1.5,6.375,0
29520,-2.875,-2.1875,4.25,0
29540,-4.375,-2.375,2.1875,0
29560,-4.4375,-0.75,1.25,0
29580,-1.875,0.8125,0.5,0
29600,-0.9375,1.6875,-1.25,0
29620,-1.6875,2.25,-1.8125,0
29640,-3.375,2,-1.625,0
29660,-2.75,2.5625,-2.1875,0
29680,1,2.8125,-1.125,0
29700,-0.125,1.75,-2.125,0
29720,1.0625,1.3125,-2.6875,0
29740,2,1.375,-3.0625,0
29760,3.125,1.75,-1.375,0
29780,0.9375,0.875,0.75,0
29800,-1.1875,0.8125,1.3125,0
29820,-2.5625,1.8125,2.125,0
29840,-5.6875,1.4375,2.375,0
29860,-3.0625,-0.5,2.75,0
29880,1.25,-0.6875,3.625,0
29900,-0.1875,-0.75,3.75,0
29920,-4.5,-1.4375,4.0625,0
29940,-1.625,-1.375,2.6875,0
29960,0.75,-0.1875,4.4375,0
29980,0,-0.5625,5.3125,0
30000,5.6875,-0.8125,3.75,0
30020,2.5,-2.5,3.5625,0
30040,0,-4.5625,4.25,1000
30060,7.0625,-7.875,2.4375,0
30080,16,-12,3.5625,0
30100,15.6875,-15.625,7.3125,0
30120,10.0625,-16.3125,10,0
30140,6.6875,-14.25,8.3125,0
30160,9.5,-14.25,6.3125,0
30180,14.4375,-14.1875,7.9375,0
30190,15.4375,-14.1875,9.3125,0
30210,11.5625,-15.0625,10.375,0
30230,10.75,-13.3125,10.75,0
30250,11.375,-12.625,8.875,0
30270,13.75,-13.625,8.9375,0
30290,14.9375,-14.75,9.5625,0
30310,12.1875,-15.9375,8.25,0
30330,10.75,-15.75,7,0
30350,9.5,-15.625,6.5625,0
30370,11.125,-17.8125,4.875,0
30390,13.875,-16.625,3.625,0
30410,14.875,-13.9375,4.125,0
30430,12.5,-13.125,4.0625,0
30450,12.9375,-10.25,0.3125,0
30470,10.75,-10.1875,0.8125,0
30490,8,-8.9375,-0.1875,0
30510,7.5,-8.25,-1.125,0
30530,6.625,-10.4375,0,0
30550,7.3125,-12.125,0.8125,0
30570,5.5,-11.4375,0.375,0
30590,8.6875,-12.125,-0.625,0
30610,8.6875,-14.5,-0.6875,0
30630,6.1875,-14.5,-1.875,0
30650,4.875,-12.25,-2.3125,0
30670,4.25,-11.8125,-2.25,0
30690,5.8125,-10.875,-2.5625,0
30710,4.875,-8.375,-1.0625,0
30730,6.0625,-7.0625,0,0
30750,4.625,-7,-0.8125,0
30770,3.5,-7.6875,-1.375,0
30790,2,-8.0625,-0.6875,0
30810,1.3125,-7.25,-2.625,0
30830,3.0625,-8.0625,-1.625,0
30850,3.6875,-8.75,-0.0625,0
30870,3.6875,-8.3125,-2.1875,0
30890,3.8125,-8.8125,-4.0625,0
30910,2.625,-9.125,-3.125,0
30930,3.8125,-7.9375,-1.75,0
30950,3.75,-7.1875,-4.125,0
30970,1.6875,-8.0625,-4.5,0
30990,-0.6875,-8.875,-3.375,0
31010,3.25,-7.375,-5.75,0
31030,5.25,-10.125,-7.875,0
31050,0.6875,-11.9375,-7.5,0
31070,-3.4375,-12.4375,-7.75,0
31090,-3.4375,-9.375,-9.625,0
31110,-2.625,-8.875,-12.375,0
31130,-5.5,-10.0625,-13.375,0
31150,-8.625,-8,-14.0625,0
31170,-7.875,-4.625,-16.3125,0
31190,-6.8125,-4.125,-16.25,0
31210,-9.9375,-3.5,-16.75,0
31230,-11.8125,-2.8125,-16.6875,0
31250,-13.125,-1.0625,-18,0
31270,-15,2.5625,-20.1875,0
31290,-14.8125,5.0625,-22.9375,0
31310,-13.75,3.25,-24.625,0
31330,-13.5,1.25,-25.1875,0
31350,-11.6875,-0.3125,-24.5,0
31370,-10.875,-1.125,-24.6875,0
31390,-11.5625,-1.25,-24.5,0
31410,-12.125,-2.1875,-22.625,0
31430,-12.625,-1.875,-20.375,0
31450,-11.125,-1.75,-18.4375,0
31470,-11.3125,-2.3125,-17.625,0
31490,-12.0625,-0.5625,-17.5625,0
31510,-13,0.5,-16.5,0
31530,-13.625,3.125,-17.375,0
31550,-12.3125,4.375,-17.4375,0
31570,-12.3125,5.75,-16.375,0
31590,-12.4375,6.5625,-16.1875,0
31610,-12.875,6.3125,-17.75,0
31630,-11.4375,5.6875,-18.375,0
31650,-9.4375,3,-15.9375,0
31670,-10.6875,1.125,-16.25,0
31690,-10.9375,-1.4375,-17.3125,0
31710,-11.0625,-3.6875,-16.625,0
31730,-11.1875,-3.6875,-15.5625,0
31750,-10.25,-2.1875,-15.9375,0
31770,-10.875,-0.375,-17.25,0
31790,-12.125,2.3125,-19.1875,0
31810,-10.1875,3.9375,-19.5625,0
31830,-9.75,3.8125,-19.5625,0
31850,-10.8125,5.5625,-19.625,0
31870,-10.3125,6.5625,-19.4375,0
31890,-10.6875,6.125,-19.9375,0
31910,-10.875,4.5,-19.6875,0
31930,-9.25,4.125,-20,0
31950,-7.5,3.5,-21.1875,0
31970,-7.375,2.3125,-21.9375,0
31990,-7.5625,1.0625,-21.0625,0
32010,-6.5625,0.9375,-21.5625,0
32030,-4.3125,0.8125,-21.25,0
32050,-5.375,0.625,-21.3125,0
32070,-7.5,0.5625,-21.375,0
32090,-7.1875,1.75,-21,0
32110,-5.25,3.8125,-20.5,0
32130,-4.8125,3.8125,-19.375,0
32150,-6.6875,2.9375,-19.375,0
32170,-6.625,3.1875,-21.1875,0
32190,-5.0625,3.3125,-21.5625,0
32210,-5,3.0625,-22.1875,0
32230,-6,2.5,-22.5625,0
32250,-5.875,3.1875,-22.4375,0
32270,-4.6875,3.875,-22.875,0
32290,-5.25,2.875,-24.0625,0
32310,-6.4375,1.4375,-23.5625,0
32330,-7.0625,1.0625,-23.25,0
32350,-4.9375,1.1875,-22.6875,0
32370,-5,0.8125,-22.3125,0
32390,-6.625,0.5,-21.8125,0
32410,-6.5625,1.375,-22.375,0
32430,-5,1.9375,-23.5,0
32450,-5.25,2.25,-23.375,0
32470,-5.125,1.8125,-22.625,0
32490,-5.125,1.5625,-23.5625,0
32510,-5.625,1.3125,-23.8125,0
32530,-6.3125,2.25,-23.6875,0
32550,-5.5,2.125,-23.625,0
32570,-4.5,2,-24.75,0
32590,-6.4375,0.4375,-23.875,0
32610,-7.8125,-1.0625,-22.5,0
32630,-6,-1.0625,-21.125,0
32650,-4.0625,-1,-22.1875,0
32670,-3.75,-0.625,-22.8125,0
32690,-7.6875,1.125,-22,0
32710,-7.0625,2.875,-22.25,0
32730,-6.0625,2.1875,-21.6875,0
32750,-6.1875,3.0625,-19.9375,0
32770,-7.5625,8.8125,-21.3125,0
32790,-5.625,9.4375,-23.875,0
32810,-8.375,7.5,-23.9375,0
32830,-10.875,7.75,-19.625,0
32850,-9.125,10.4375,-18.3125,0
32870,-5.1875,9.6875,-19.875,0
32890,-5.0625,5.3125,-18.1875,0
32910,-8.4375,0.5625,-13.3125,0
32930,-9.125,-2.4375,-10.3125,0
32950,-7,-0.375,-10.75,0
32970,-4.375,0.4375,-10.5,0
32990,-4.8125,0.25,-10.125,0
33010,-5,2.0625,-9.875,0
33030,-5.75,4.625,-8.5,0
33050,-6.0625,10.75,-6.9375,0
33070,-0.1875,10.125,-4.8125,0
33090,0.25,6.375,-6.375,0
33110,2.625,4.5625,-3.5,0
33130,0.0625,7.1875,-2.0625,0
33150,-2,9.625,-7.375,0
33170,-3.8125,5.25,-9.875,0
33190,-8,2.6875,-6.75,0
33210,-7.0625,3.125,-2.5625,0
33230,-4.125,5.8125,-2.8125,0
33250,-1.125,7.625,-6.125,0
33270,-0.5,8,-5.5,0
33290,-4.375,7.75,-1.4375,0
33310,-7.5625,9.1875,-0.125,0
33330,-7.75,12.25,0,0
33350,-4.9375,11.6875,-2.5625,0
33370,-7.25,8.8125,0.4375,0
33390,-10.1875,6.4375,5.25,0
33410,-9.375,6.625,4.625,0
33430,-5.6875,6.75,0.875,0
33450,-6.125,6.8125,1.375,0
33470,-5.3125,5.3125,1.625,0
33490,-4.375,4.75,0.0625,0
33510,-2.1875,4.5,-0.0625,0
33530,-1.4375,4.75,-0.5,0
33550,-1.5,6.0625,-1.4375,0
33570,-1.5625,6.375,-1.875,0
33580,-2.5625,6.125,0.0625,0
33600,-3.1875,7.625,0.4375,0
33620,-1.5625,9.625,-0.5625,0
33640,-3.5625,11.25,-1.0625,0
33660,-6.5625,11.5,0.875,0
33680,-6.4375,13.0625,1.8125,0
33700,-4.9375,15.5625,1.75,0
33720,-2.3125,16.25,0.9375,0
33740,-5.8125,13.0625,3.8125,0
33760,-7.4375,11,6.6875,0
33780,-6.3125,12.4375,4.375,0
33800,-3.625,11.75,3.3125,0
33820,-6.625,9.125,4.375,0
33840,-6.125,9.1875,4.5,0
33860,-2.8125,8.75,4.1875,0
33880,-3.0625,4.5625,5.9375,0
33900,-4.875,2.25,9.25,0
33920,-5.375,3.3125,9.8125,0
33940,-6.375,4.5625,10.125,0
33960,-7.1875,4.125,9.1875,0
33980,-7.5625,3.875,10.3125,0
34000,-8.3125,5.0625,12.0625,0
34020,-6.6875,5.8125,9.875,0
34040,-6.4375,6.75,7.8125,0
34060,-8.9375,4.8125,10.125,0
34080,-11.25,2.6875,13.625,0
34100,-9.8125,3.875,11.875,0
34120,-8.1875,3.75,11.6875,0
34140,-7.625,4.3125,11.9375,0
34160,-8.375,4.5625,13.0625,0
34180,-9.875,3.9375,12.5,0
34200,-10.375,2.6875,11.125,0
34220,-7.125,2.9375,12.1875,0
34240,-8.0625,1.8125,14.125,0
34260,-8,-0.0625,12.75,0
34280,-2,1,13.4375,0
34300,-2.625,0.9375,13.9375,0
34320,-4,0.1875,13.75,0
34340,-4.5,0.375,13.4375,0
34360,-4.5,-0.25,13,0
34380,-8.625,-3.4375,16.4375,0
34400,-8.625,-4,16.125,0
34420,-6.6875,-3.9375,15,0
34440,-7.8125,-4.875,16.75,0
34460,-9.1875,-6.375,17.625,0
34480,-11.5625,-5.8125,16.6875,0
34500,-9.0625,-2.4375,15.3125,0
34520,-5.625,-0.3125,15.25,0
34540,-8.375,-1.4375,16.6875,0
34560,-5,0.5,15.25,0
34580,-1.6875,3.3125,13.8125,0
34600,-5.5625,1.1875,16.1875,0
34620,-5.25,0.5,14.5,0
34640,-3.3125,0.5625,15.25,0
34660,-7.3125,-3.75,18.25,0
34680,-6.125,-5.5625,18.375,0
34700,-3.0625,-4.625,17.6875,0
34720,-2.4375,-4.875,18.0625,0
34740,-3.8125,-6.9375,19.0625,0
34760,-2.6875,-6.5625,17.875,0
34780,-0.5,-4.6875,17.875,0
34800,-2.8125,-5.8125,19.3125,0
34820,-3.3125,-5.0625,17.8125,0
34840,-2.375,-3.625,17.4375,0
34860,-1.75,-3.5,17.0625,0
34880,-2.5,-5,18.625,0
34900,-1.625,-4.6875,18.0625,0
34920,-1.75,-4.25,18.8125,0
34940,-5.375,-6.1875,18.9375,0
34960,-3.4375,-5.5,16.375,0
34980,-1.8125,-5.5,17.8125,0
35000,-0.0625,-6.6875,17.5625,0
35020,0.0625,-8.3125,17.375,0
35040,-2.0625,-8.0625,18.625,0
35060,-0.375,-6,16.1875,0
35080,1.4375,-5.9375,15.8125,0
35100,2.4375,-8.5,17.375,0
35120,1.875,-9.75,17.625,0
35140,3.1875,-9.8125,17.875,0
35160,0.5,-10.9375,19.5625,0
35180,-1.9375,-11.8125,20.4375,0
35200,-1.4375,-10.8125,19.5625,0
35220,-1.375,-11.1875,20.5625,0
35240,-0.9375,-13.25,21.5625,0
35260,2.25,-12.875,20.3125,0
35280,1.8125,-14.375,21.8125,0
35300,0.125,-16.4375,21.75,0
35320,1.0625,-15.75,20.625,0
35340,-1.8125,-16,21.875,0
35360,-4.375,-17,22.25,0
35380,1.1875,-16.875,20.25,0
35400,4.375,-16.75,19.75,0
35420,1.3125,-18.4375,22.375,0
35440,-0.5625,-18.5,21.9375,0
35460,0.3125,-16.9375,19.4375,0
35480,-0.625,-17.9375,20.75,0
35500,-0.9375,-20.4375,21.625,0
35520,1.5,-22.1875,21.4375,0
35530,4.25,-22.625,21.625,0
35550,3.75,-24.1875,22.5625,0
35570,-1.75,-26.625,25.1875,0
35590,-0.9375,-27.5,23.5625,0
35610,-1.375,-30.3125,24.4375,0
35630,-5.25,-33,30.5,0
35650,-5.9375,-33.5625,27.625,0
35670,-2.75,-31.9375,24.3125,0
35690,-1.125,-31.9375,25.3125,0
35710,0.25,-32.3125,25.4375,0
35730,4.9375,-34.125,24.375,0
35750,6.625,-34.3125,24.5625,0
35770,4.5,-32.875,24.375,0
35790,2.9375,-32.5625,23.3125,0
35810,3.625,-33.125,22.75,0
35830,7,-31.1875,21.125,0
35850,10.25,-30.0625,21.375,0
35870,8.5,-32.25,21.3125,0
35890,5.75,-30.875,20.9375,0
35910,5.25,-27.1875,19.0625,0
35930,7.1875,-28.3125,16.9375,0
35950,12.1875,-29.9375,16.6875,0
35970,13.0625,-29.625,16.25,0
35990,13.5625,-29,13.8125,0
36010,13.0625,-28.8125,12.75,0
36030,15.125,-27.9375,11.3125,0
36050,13.6875,-25.375,10.0625,0
36070,12.125,-25.0625,10.5625,0
36090,11.9375,-23.875,10.6875,0
36110,13.8125,-22.1875,8.875,0
36130,13.1875,-21,6.1875,0
36150,10.875,-22.5625,6.4375,0
36170,9.75,-22.625,7.0625,0
36190,13.125,-22.25,3,0
36210,16.9375,-23.5,1,0
36230,12.3125,-24.125,0.0625,0
36250,11.0625,-24.3125,-1.25,0
36270,9.75,-24.0625,-1.375,0
36290,5.375,-24,-0.125,0
36310,7.25,-24.6875,-2,0
36330,8.9375,-24.6875,-2.6875,0
36350,6,-20.5625,-3,0
36370,3.3125,-17.75,-3.75,0
36390,4.625,-20.375,-5.125,0
36410,7.0625,-22.5625,-5.75,0
36430,6.6875,-19.0625,-6.125,0
36450,4.125,-18.625,-6.75,0
36470,6.9375,-20.875,-5.3125,0
36490,4.0625,-22.5,-5.6875,0
36510,3.4375,-22.625,-5.5,0
36530,2.625,-21.75,-5.4375,0
36550,2.75,-20.1875,-7.75,0
36570,3.75,-18.4375,-10.1875,0
36590,3.875,-19.5,-10.375,0
36610,3.375,-17.4375,-10.8125,0
36630,4.4375,-14.3125,-14.75,0
36650,5.125,-13.1875,-18.4375,0
36670,1.75,-12.1875,-16,0
36690,0.6875,-10.1875,-14.3125,0
36710,3.4375,-9.875,-17.8125,0
36730,1.1875,-9.8125,-20.375,0
36750,-4.1875,-11.9375,-18.1875,0
36770,-4.375,-11.25,-18.125,0
36790,-2.5,-8.5,-21.3125,0
36810,-1.3125,-8.9375,-23.375,0
36830,-3.8125,-9.75,-21.9375,0
36850,-6.125,-11,-20.3125,0
36870,-5.375,-9.125,-23.5,0
36900,-4.75,-13.4375,-22.875,0
36920,-5.9375,-15.0625,-21.8125,0
36940,-3.875,-14,-24,0
36970,-3.5,-13.375,-24.875,0
36990,-5.1875,-13.9375,-23.3125,0
37010,-5.75,-11.5,-24.4375,0
37030,-5.0625,-8.625,-27.3125,0
37050,-6.5625,-7.75,-26.875,0
37070,-8.5,-7.5,-24.4375,0
37090,-8.125,-7.8125,-21.8125,0
37110,-8.6875,-8.0625,-22,0
37130,-9.0625,-7.875,-24.9375,0
37150,-10.3125,-8.1875,-26.125,0
37170,-10.125,-9.3125,-27.9375,0
37190,-10.625,-9.3125,-29.5625,0
37210,-10.375,-8.4375,-30.4375,0
37230,-11.125,-9.25,-31.6875,0
37250,-11.4375,-9.8125,-34.75,0
37270,-13.3125,-9.375,-34.25,0
37290,-15.3125,-9.5,-34.5625,0
37310,-15.1875,-10.375,-35.875,0
37330,-17.25,-9.625,-36.3125,0
37350,-16.1875,-8.3125,-38.875,0
37370,-16.8125,-8.3125,-39.75,0
37390,-19.3125,-8.0625,-37.8125,0
37410,-21.625,-6.5625,-36.125,0
37430,-21.125,-4.125,-37.4375,0
37450,-21.125,-1.5625,-40.75,0
37470,-21.5,0.25,-38.375,0
37490,-21.75,1.3125,-36.9375,0
37510,-19.75,3.1875,-37.375,0
37530,-19.0625,6.1875,-37.125,0
37550,-18.875,10.5,-37.375,0
37570,-16.9375,12.375,-37.25,0
37590,-15.5,13.875,-37,0
37610,-15,15.875,-35.0625,0
37630,-13.625,19.5,-36.0625,0
37650,-11.125,20.5,-37,0
37670,-10.8125,17.8125,-34.375,0
37690,-11.0625,16.5,-29.75,0
37710,-9.875,16.5625,-28.3125,0
37730,-7.125,17.3125,-30.625,0
37750,-7.125,17.875,-30.6875,0
37770,-8.3125,17.125,-25.4375,0
37790,-8.375,15.3125,-21.8125,0
37810,-6.0625,16.5625,-24.3125,0
37830,-3.75,14.75,-23.375,0
37850,-6,12.375,-19.6875,0
37870,-6.5625,10.5625,-15.625,0
37890,-5.5,11.25,-16.3125,0
37910,-4.3125,16.625,-20.0625,0
37930,-4.25,16.1875,-17.5625,0
37950,-5.6875,14.5625,-14.8125,0
37970,-4.375,13.4375,-14.1875,0
37990,-4.4375,14.5,-15.5,0
38010,-3.8125,15.6875,-15.3125,0
38030,-4.1875,18.5,-15.9375,0
38050,-3.6875,18.4375,-16.3125,0
38070,-5.3125,15.75,-14.375,0
38090,-5.6875,16.1875,-14.0625,0
38110,-2,16.3125,-11.625,0
38130,-2.5625,17.1875,-12.0625,0
38150,-1.4375,17.1875,-13.125,0
38170,-4.4375,16.4375,-11.25,0
38180,-6.0625,16.1875,-9.875,0
38200,-3.3125,16.0625,-9.5625,0
38220,-1.5625,20.4375,-13.6875,0
38240,0.5,22,-14.375,0
38260,-4.75,18.1875,-12.4375,0
38280,-5.75,14.75,-10.625,0
38300,-2.75,16.75,-9.6875,0
38320,1.9375,17.125,-10.4375,0
38340,0.0625,17.625,-11.375,0
38360,-0.5625,15.5,-9.3125,0
38380,-3.0625,13.6875,-6.4375,0
38400,-2.75,14.6875,-5.8125,0
38420,-0.8125,15.25,-5.9375,0
38440,-2.25,14.75,-4.375,0
38460,-4.8125,14.375,-1.875,0
38480,-5.4375,13.5,-1.75,0
38500,-5.3125,15.875,-3.4375,0
38520,-4.3125,16.375,-4,0
38540,-6.375,14.6875,-1.1875,0
38560,-6.3125,14.75,-0.125,0
38580,-4.1875,12.625,-1.375,0
38600,-3.125,11.5,-0.5,0
38620,-6.125,10.1875,5.75,0
38640,-9.3125,9.5,7.4375,0
38660,-7.25,11.75,6.25,0
38680,-9.9375,12.5,7.375,0
38700,-15.25,10.8125,9.125,0
38720,-16.5,11.75,10.375,0
38740,-13.5,13.9375,11,0
38760,-15.0625,13.9375,9.6875,0
38780,-17.1875,15.25,10.75,0
38800,-18,17.375,11.6875,0
38820,-18.0625,17.625,10.8125,0
38840,-16.5625,15.9375,10.5,0
38860,-20.3125,14.5625,13.375,0
38880,-23.3125,15.125,13.5,0
38890,-17.5625,15.75,12.9375,0
38910,-17.3125,12.625,13,0
38930,-20.5625,8,17.6875,0
38950,-22.6875,6.75,20.4375,0
38970,-22.6875,8.25,18.625,0
38990,-19.0625,12.0625,15,0
39010,-19.25,11.8125,16.9375,0
39030,-21.5625,11.25,15.25,0
39050,-17.375,13.3125,15.0625,0
39070,-11.8125,14.5,14.0625,0
39090,-11.3125,8.75,10.3125,0
39110,-16.6875,1.1875,14.5,0
39130,-15.25,-0.6875,15.625,0
39150,-14.5,-1.3125,14.875,0
39170,-14.0625,-0.5625,15.1875,0
39190,-11.75,1.4375,15.0625,0
39210,-12.625,3.6875,14.75,0
39230,-15.625,5.75,14.0625,0
39250,-17.8125,9.4375,12.125,0
39270,-17.4375,11.4375,11.6875,0
39290,-16.1875,10.3125,14.1875,0
39310,-13.4375,9.3125,13.4375,0
39330,-14.625,7.4375,14,0
39350,-15.1875,4.75,12.875,0
39370,-13.3125,2.6875,15.125,0
39390,-15.8125,-1.9375,18.875,0
39410,-16,-3.125,17.9375,0
39430,-11.375,-1.75,19.0625,0
39450,-8.6875,-1.9375,19.25,0
39470,-8.3125,-1.25,18.875,0
39490,-9.375,1.6875,18.5,0
39510,-9.625,4.625,17.75,0
39530,-9.875,3.5625,18.125,0
39550,-8.75,2.6875,17.6875,0
39570,-6.5625,2.9375,19.25,0
39590,-6.625,1.5625,19.125,0
39610,-6.125,2.6875,18.875,0
39630,-4.0625,1.9375,20,0
39650,-5.875,0,19.875,0
39670,-4.5,-1.1875,21.625,0
39690,-2.8125,-1.625,22.9375,0
39710,-2.125,-3.25,22.1875,0
39730,-4.75,-5.8125,23.625,0
39750,-4.25,-5.5625,21.8125,0
39770,0,-5.5625,20.9375,0
39790,-3.125,-9.4375,23.5,0
39810,-2.5,-9.6875,22.3125,0
39830,-1,-9.375,20.875,0
39850,0.25,-10.75,21.3125,0
39870,0.125,-11.9375,21.25,0
39890,2.1875,-10.9375,20.875,0
39910,2.0625,-11.25,21.5,0
39930,-1.125,-13.0625,22.6875,0
39950,-2.5625,-13.5,21.8125,0
39970,-1.6875,-14.0625,21.75,0
39990,-0.3125,-15.3125,22.0625,0
40010,-1.5625,-15.375,22.375,0
40030,-0.0625,-14.375,21.5625,0
40050,2.0625,-14.8125,20.8125,0
40070,2.4375,-17.25,21.8125,0
40090,3.5625,-18.25,22.25,0
40110,3.4375,-18.75,22.25,0
40130,2.25,-20.875,23,0
40150,1.6875,-24.3125,25.375,0
40170,-0.3125,-26.5625,27.625,0
40190,1.25,-25.6875,27.5,0
40210,-0.6875,-26.625,27.4375,0
40230,-4.25,-29.3125,28.625,0
40250,-2.9375,-30.875,29.5625,0
40270,2.4375,-32,27.1875,0
40290,2.625,-35.3125,27.8125,0
40310,3.75,-36.3125,29.0625,0
40330,4,-38.625,27.0625,0
40350,4.625,-40.3125,27.125,0
40370,4.125,-41.75,27.6875,0
40390,5.125,-42.625,25.9375,0
40410,7.25,-42.25,26.75,0
40430,7.4375,-40.125,27.5,0
40450,4.3125,-40.6875,23.8125,0
40470,2.5,-41.3125,21.375,0
40490,4.75,-41.75,21.5,0
40510,10.3125,-42.75,22.9375,0
40530,10.8125,-41.875,22.4375,0
40550,8.375,-40.5,19.9375,0
40570,4.25,-36.5,17,0
40590,2.625,-31.25,14.6875,0
40610,9.875,-27,11.4375,0
40630,19.1875,-30.625,8.5625,0
40650,19.9375,-34.375,7.6875,0
40670,17.1875,-35.125,6,0
40690,16.5,-32.5625,1.6875,0
40710,19.5625,-33.4375,-1.1875,0
40730,17.9375,-35.125,1.6875,0
40750,17,-36.8125,2.375,0
40770,15.125,-39.1875,-2.4375,0
40790,13.25,-37.1875,-4.125,0
40810,6.75,-32.9375,-3.75,0
40820,9.1875,-31.1875,-5.4375,0
40840,13.4375,-29.8125,-7.75,0
40860,9.875,-29.125,-7.5,0
40880,6.5,-23.9375,-11.625,0
40900,10.625,-20.75,-16.8125,0
40920,9.75,-20.3125,-19.5625,0
40940,9.5625,-20.25,-21.5625,0
40960,10.4375,-18,-25.125,0
40980,12.875,-18.4375,-28.6875,0
41000,9.3125,-23.5,-28.9375,0
41020,5,-25.125,-29,0
41040,4.375,-23.6875,-30.9375,0
41060,3.8125,-19,-34.75,0
41080,2.25,-21.1875,-32.625,0
41100,-0.75,-26.875,-30.6875,0
41120,-1.125,-25.375,-31.5625,0
41140,-1.125,-21.9375,-31.75,0
41160,-2.1875,-22.0625,-32.625,0
41180,-1.0625,-21.75,-35.4375,0
41200,-1.5,-21.875,-34.875,0
41220,-7.5625,-22.0625,-33.5625,0
41240,-5.25,-19,-35.875,0
41260,-2.625,-16.5,-37.1875,0
41280,-3.25,-15.5625,-37.125,0
41300,-4.5,-19.0625,-33.8125,0
41320,-6.375,-20.125,-32.8125,0
41340,-6,-17,-34.8125,0
41360,-7.625,-14.125,-35.375,0
41380,-7.875,-15.1875,-33.5625,0
41400,-8.8125,-14.25,-32.8125,0
41420,-7.875,-10.5625,-33.6875,0
41440,-9.375,-5.9375,-34.875,0
41460,-9.4375,-1.9375,-35.3125,0
41480,-10.0625,-2.125,-35.125,0
41500,-11.75,-2.6875,-33.6875,0
41520,-13.5,-3,-33.5625,0
41540,-14.1875,-1.6875,-33.875,0
41560,-15.6875,-0.1875,-35.6875,0
41580,-16.25,0.6875,-36.9375,0
41600,-16.625,-0.375,-35.625,0
41620,-16.9375,-0.625,-35.0625,0
41640,-18.25,1.3125,-36.875,0
41660,-17.625,2.25,-35.5625,0
41680,-17.625,4.3125,-35.5,0
41710,-15.5625,10.1875,-36.8125,0
41730,-16.5625,11.6875,-35.3125,0
41740,-15.875,14.375,-34.0625,0
41750,-13.8125,18.4375,-36.3125,0
41770,-12.375,19.8125,-37.4375,0
41790,-15.3125,20.5625,-36.5625,0
41810,-14,21.75,-36.0625,0
41830,-12.5,23.25,-36.75,0
41850,-11.125,29.625,-38.5625,0
41870,-10.1875,33.6875,-37.6875,0
41890,-13.375,30.9375,-32.75,0
41910,-15.875,31.1875,-28.9375,0
41930,-14.8125,39.0625,-28.625,0
41950,-12.9375,41.1875,-26.9375,0
41970,-12.4375,39.9375,-26.375,0
41990,-12.6875,44.375,-24.9375,0
42010,-15.1875,39.875,-21.25,0
42030,-18.9375,34.0625,-17,0
42050,-18.75,32.1875,-14.3125,0
42070,-17.9375,34.9375,-15.125,0
42090,-19.4375,31.6875,-15.375,0
42110,-18.9375,29.25,-13.125,0
42130,-17.875,28.9375,-8.3125,0
42150,-17.625,27.375,-6.9375,0
42170,-20.0625,28,-7,0
42190,-20.3125,29.875,-5.5,0
42210,-21.0625,32.625,-4.5,0
42230,-19.25,35.375,-5.3125,0
42250,-18.4375,31.9375,-5.3125,0
42270,-21.625,26.375,-0.125,0
42290,-20.9375,24.875,2.8125,0
42310,-20.375,22.8125,0.9375,0
42330,-18.625,21.875,0.3125,0
42350,-17.3125,22.9375,3.875,0
42370,-19.3125,22.4375,3.25,0
42390,-24.125,23.375,2.125,0
42410,-26.125,24.875,5.75,0
42430,-30.0625,20.5625,10.5,0
42450,-36.0625,15.375,14.375,0
42470,-40.5625,13.1875,16.25,0
42490,-35.5,14.3125,14.375,0
42510,-28.125,14.75,12.25,0
42530,-29.8125,17.125,16.0625,0
42550,-30.375,23.4375,12.625,0
42570,-35.75,22.5,9.625,0
42590,-37.75,24.6875,10.0625,0
42610,-30.0625,32.1875,6.0625,0
42630,-20.25,36.75,5.625,0
42650,-18.625,32.9375,6,0
42670,-26.125,27.5,9.125,0
42690,-30.25,26.375,10.625,0
42710,-28.3125,26.4375,9.5625,0
42730,-26.4375,25.625,12.125,0
42750,-30.4375,23,17.6875,0
42770,-34.8125,18.5625,17.75,0
42790,-35.75,13.125,18.4375,0
42810,-31.5625,9.9375,21.0625,0
42830,-23.875,8.3125,22.625,0
42850,-21.3125,6.5,22.125,0
42870,-21.75,6.125,23.3125,0
42890,-26.1875,5.6875,25.5,0
42910,-24.6875,6.4375,22.5625,0
42930,-16.0625,5.625,21.625,0
42950,-12.5625,4.125,25.5625,0
42970,-12.9375,2.4375,26.75,0
42990,-14.5,-3.25,28,0
43010,-13.8125,-6.6875,30.375,0
43030,-12.9375,-10.1875,32.625,0
43050,-13.5,-13.9375,33.9375,0
43070,-13.3125,-16.25,36.375,0
43090,-16.8125,-19.625,38.5625,0
43110,-16.875,-23.125,38.3125,0
43130,-8.5,-24.375,37.5,0
43150,-4.5625,-25.25,40.1875,0
43170,-6.4375,-28.125,39.9375,0
43190,-15.375,-31.5,41.6875,0
43210,-16.5625,-31.8125,40.9375,0
43230,-9.1875,-30.75,37.125,0
43250,-0.5,-29.1875,37.0625,0
43270,3.9375,-28.625,35.6875,0
43290,5.5,-27.5,33.375,0
43310,6.5625,-27.9375,34.5625,0
43330,4.75,-28.375,33.875,0
43350,6.5,-29.875,31.1875,0
43370,10.6875,-33.375,30.0625,0
43390,16.75,-38.625,30.625,0
43410,14.1875,-43.75,30.5,0
43430,15.4375,-48.125,28.125,0
43450,21.9375,-54.5625,23.375,0
43470,27.3125,-60.625,25.9375,0
43490,26,-60,23.4375,0
43510,24.1875,-59.5,21.3125,0
43530,22.8125,-64,20.6875,0
43550,24.3125,-64.1875,18.625,0
43570,23.9375,-61.8125,17.75,0
43590,24.125,-59.6875,16.1875,0
43610,27,-56.6875,11.3125,0
43630,30.875,-55.6875,11.3125,0
43650,25.4375,-57.625,13,0
43670,24.625,-54.6875,12.5625,0
43690,25.875,-57.625,13.25,0
43710,20.5,-62.625,16.5,0
43730,16.5,-62.5625,17.375,0
43750,13.5625,-62,15.5625,0
43770,6.9375,-61.1875,16.3125,0
43790,2.3125,-59.25,13,0
43810,8.375,-57.0625,8.75,0
43830,14.25,-57.3125,6.75,0
43850,14.5,-56.625,3.1875,0
43870,17.75,-52.6875,-0.875,0
43890,19.0625,-49.9375,-4.9375,0
43910,19.375,-48.6875,-8.1875,0
43930,20.125,-47.4375,-11.9375,0
43950,22.0625,-45,-14.9375,0
43970,23.1875,-41.875,-14.0625,0
43990,17.375,-40.4375,-13.5625,0
44010,16.375,-38.25,-18.625,0
44030,20,-36.125,-21.3125,0
44050,15.3125,-35.4375,-17.1875,0
44070,12.625,-32.0625,-18.625,0
44090,17.3125,-30.3125,-24,0
44110,12.8125,-30.75,-24.125,0
44130,7.0625,-28.375,-24.6875,0
44150,8.9375,-22.1875,-25.9375,0
44170,12.9375,-20.625,-25.5,0
44190,11.75,-24.3125,-23.375,0
44200,9.1875,-24.6875,-21.625,0
44220,7,-22.4375,-21.625,1001
44240,4.9375,-19.75,-20.1875,0
44260,-0.5625,-17.5625,-14.5,0
44280,-1.1875,-15.5625,-12.9375,0
44300,1.5625,-14.0625,-8.875,0
44320,-0.25,-11.0625,-4.1875,0
44340,-1.9375,-8.8125,-2,0
44360,-1.9375,-7.3125,-1.25,0
44380,-1.6875,-5.0625,-2.1875,0
44400,-1.875,-3.375,-0.6875,0
44420,-2.8125,-1.25,1.125,0
44440,-0.9375,0.0625,0.875,0
44460,1.0625,0.6875,0.25,0
44480,-0.0625,0.875,0.4375,0
44500,-2.375,1.5625,0.125,0
44520,-1.375,2.9375,-1.25,0
44540,-2.625,3,-1.875,0
44560,-1,4.375,-1.125,0
44580,-1.375,5.8125,-0.5,0
44600,-2.9375,7.1875,-0.5,0
44620,-3.3125,9.625,0.1875,0
44640,-4.8125,11.625,1.5625,0
44660,-5.375,15.75,2.1875,0
44680,-4.5,20.9375,4.8125,0
44700,-6.5625,23.5625,8,0
44720,-9.1875,29.1875,9.75,0
44740,-7.375,49.4375,9.0625,0
44760,7,59.0625,16.3125,0
44780,4.6875,59.625,25.9375,0
44800,-3.6875,68.625,33.5625,0
44820,-1.875,84.75,39.5,0
44840,10.1875,101.188,39.5625,0
44860,5.8125,109.188,43.0625,0
44880,8.6875,123.938,46.5625,0
44900,26.9375,141.625,47.875,0
44920,38.0625,148.812,50,0
44940,25.25,146,50.4375,0
44960,24.9375,159.312,50,0
44980,33.5625,166.75,58.625,0
45000,29.3125,153.312,57.3125,0
45020,12.0625,134.875,58.875,0
45040,-5.3125,129.812,58.4375,0
45060,-6.875,120.75,58.8125,0
45080,-5.8125,100.062,55.9375,0
45100,-11.25,77.125,56.75,0
45120,-12.25,60.9375,59.1875,0
45140,-8.9375,49.625,52.5,0
45160,-3,36.375,44.1875,0
45180,-0.375,20.625,38.5625,0
45200,6.0625,10.8125,30.625,0
45220,11.25,7.5,27.5,0
45240,10.375,4.1875,21.25,0
45260,9.25,0.3125,11.5625,0
45280,6.8125,-1.25,7.125,0
45300,7.875,-3,6.25,1000
45320,10.3125,-3.875,4.1875,0
45340,9.9375,-4.375,3.25,0
45360,7.875,-4.9375,4.6875,0
45380,2.1875,-3.875,6.4375,0
45400,-0.9375,-2.375,4.375,0
45420,-0.1875,-0.9375,2.875,0
45440,0.875,-0.875,1.125,0
45460,5,-2.25,1.4375,0
45480,4.625,-1.5,0.125,0
45500,3.8125,-1.375,-2.375,0
45520,3.5,-2.25,-2.75,0
45540,4.3125,-4.0625,-3,0
45560,7,-3.375,-1.8125,0
45580,9.125,-3.125,-1.25,0
45600,5.1875,-4.1875,-0.0625,0
45620,0.75,-5.5,-0.5,0
45640,0.875,-5.5625,-0.75,0
45660,7.625,-3.5625,2,0
45680,9.9375,-3.8125,2.8125,0
45700,5.875,-7.25,2.75,0
45720,3.125,-7.75,2.75,0
45740,5.4375,-7.5,4,0
45760,7.75,-8.125,5.875,0
45780,6.125,-8.8125,5.8125,0
45800,5.5625,-11,6.75,0
45820,7.4375,-13.5,7.1875,0
45840,8.125,-16.75,7.4375,0
45860,11.375,-18.625,8,0
45880,12.375,-19.0625,9.3125,0
45900,15.5,-19.5,11.4375,0
45920,16.25,-22.625,8.9375,0
45940,15.75,-24.4375,6.9375,0
45960,16.9375,-27.1875,8.1875,0
45980,15.9375,-29,9.375,0
46000,14.0625,-28.0625,7.875,0
46020,13.9375,-28,4.75,0
46040,15.375,-28.25,2.5625,0
46060,18.8125,-25,3.4375,0
46080,21.8125,-23.375,2.375,0
46100,20.0625,-22,1.75,0
46120,14.4375,-21.75,2.375,0
46130,10.625,-21.6875,1.3125,0
46150,9.6875,-19.75,1.5625,0
46170,10.25,-18.75,2.0625,0
46190,10.3125,-19.75,0.9375,0
46210,9.125,-19.875,-0.875,0
46230,10.5,-21.125,-1.5625,0
46250,12.4375,-22.625,-3.0625,0
46270,13.9375,-21.8125,-3.5,0
46290,11.75,-18.6875,-4.9375,0
46310,7.375,-17.5,-8.4375,0
46330,10.5625,-14.6875,-11.625,0
46350,13.75,-13.1875,-9.125,0
46370,15,-12.75,-11.6875,0
46390,12.625,-9.6875,-15.9375,0
46410,8,-9.1875,-17.5625,0
46430,11,-10.8125,-21.25,0
46450,15.625,-12.25,-21.8125,0
46470,14.25,-12,-20.75,0
46490,12.8125,-10.25,-23.375,0
46510,10.5625,-11.25,-25.625,0
46530,8.4375,-12.5625,-26.875,0
46550,9.0625,-13.125,-26.9375,0
46570,10.125,-9.8125,-24.75,0
46590,8.375,-8.75,-24.75,0
46610,6.1875,-7.5625,-27.125,0
46630,1.8125,-6.1875,-27.5,0
46650,-0.75,-4.5,-29.875,0
46670,-0.875,-3.25,-30.1875,0
46690,-5.0625,-6.0625,-31.75,0
46710,-3.5,-4.6875,-35.6875,0
46730,-4.25,-3,-40,0
46750,-4.4375,-2.8125,-40.0625,0
46770,-7.9375,-2.25,-38,0
46790,-9.6875,-4.5625,-37.5,0
46810,-11.6875,-5.8125,-40.125,0
46830,-11.5625,-5.0625,-42,0
46850,-9.875,-3.4375,-43,0
46870,-10.125,-4.3125,-42.625,0
46890,-12.4375,-4.75,-43.1875,0
46910,-12.875,-4.1875,-43.8125,0
46930,-14.8125,-3,-41.9375,0
46950,-18.4375,-3.3125,-38.25,0
46970,-18.125,-1.1875,-40.6875,0
46990,-15.5,0.0625,-40.875,0
47010,-15.0625,-1,-40.3125,0
47030,-18.625,-1.625,-39.8125,0
47050,-18.5625,-0.375,-41.3125,0
47070,-14.6875,-0.25,-41.0625,0
47090,-13.8125,-2.625,-42.0625,0
47110,-16.5625,-4.75,-42.0625,0
47130,-16.1875,-4.4375,-42.6875,0
47150,-12.6875,-5.0625,-42.375,0
47170,-12.0625,-5.875,-42.5,0
47190,-14.5625,-5.5625,-42.9375,0
47210,-14.0625,-2.375,-44.25,0
47230,-11.4375,0.25,-45.1875,0
47250,-12.375,1.375,-44,0
47270,-13.25,3.375,-43.1875,0
47290,-11.625,5.875,-42.0625,0
47310,-10.3125,6,-43.6875,0
47330,-9.25,6.0625,-45.25,0
47350,-8.6875,7.9375,-43.0625,0
47370,-6.0625,8.6875,-38.0625,0
47390,-6.0625,6.75,-39.375,0
47410,-7.0625,7.625,-43.75,0
47430,-9.4375,8.5,-41.1875,0
47450,-7.75,6.5,-35.0625,0
47470,-5.3125,6,-34.125,0
47490,-3.5,8.125,-35.5,0
47510,-1.375,7.9375,-33.3125,0
47530,-2.75,13.6875,-35.5625,0
47550,3.75,20.625,-34.0625,0
47570,8.5,16,-26.8125,0
47590,4.4375,11.5625,-19.625,0
47610,-2.5,10.875,-20.625,0
47630,-5.0625,11,-22.375,0
47650,-6.5625,10.3125,-22.6875,0
47670,-3.75,8.5,-20.6875,0
47690,0.875,7.75,-18.8125,0
47710,2.5625,9.8125,-20.875,0
47730,3.4375,9.5625,-19.25,0
47750,-1.125,10.25,-17.125,0
47770,-3.1875,11.125,-16.9375,0
47790,-3.625,11.6875,-12.1875,0
47810,-4.5625,12.125,-6.625,0
47830,-2.3125,12.8125,-6.3125,0
47850,0.125,12.0625,-6.9375,0
47870,2.375,14.75,-6.75,0
47890,2.8125,15.0625,-5.625,0
47910,-6.125,10.875,-0.9375,0
47930,-10.6875,9.5,1.4375,0
47950,-7.125,11.75,2.5,0
47970,-4.3125,12.5625,-0.1875,0
47990,-4.5,7.9375,3.875,0
48010,-5.9375,3.25,13.9375,0
48030,1,-0.375,19.25,0
48050,9.3125,1.25,16.5,0
48070,5.875,5.9375,15.4375,0
48090,-3.75,10.5625,15.125,0
48110,-16.1875,13.125,16.25,0
48130,-20.25,15.1875,16.625,0
48150,-12.1875,20.25,14,0
48170,-7.6875,21.4375,14.75,0
48190,-12.25,20,15.375,0
48210,-11.5625,20.375,12.5,0
48230,-8.875,20.8125,12.3125,0
48250,-14.4375,19.5625,13.0625,0
48270,-16,17.4375,14.125,0
48290,-12.5,18.5,12.9375,0
48310,-10.0625,16.3125,12.5,0
48330,-8.0625,11.75,11.9375,0
48350,-10.1875,9.0625,14.6875,0
48370,-10.3125,11.0625,15.875,0
48390,-16.5625,12.1875,16.25,0
48410,-16.5625,11.9375,13.5625,0
48430,-6.375,13.75,11.5,0
48450,-4.6875,13.3125,13.25,0
48470,-9.375,13.3125,13.8125,0
48490,-13.75,12.4375,13.5,0
48510,-15.375,8.875,15.5,0
48530,-12.8125,7.875,17.1875,0
48550,-11.0625,10.875,17.375,0
48570,-14.5,14.625,16.625,0
48590,-8.625,16.0625,15.75,0
48610,-4.75,15.25,15.8125,0
48630,-7.5,15.125,18,0
48650,-8.75,19.75,18.75,0
48670,-17.5,16.875,19.375,0
48690,-22.3125,9.6875,21.625,0
48710,-13.8125,9.1875,20.3125,0
48730,-3.8125,10,18.625,0
48750,-2.8125,5.625,22.875,0
48770,-0.9375,2.1875,23.4375,0
48790,1.375,1.75,20.75,0
48810,-1.3125,1,22.125,0
48830,-3,-0.125,23.625,0
48850,0.0625,-1.75,24.25,0
48870,1.875,-4.25,27,0
48890,-1.1875,-6.625,30.375,0
48910,-5.125,-8.5625,32.75,0
48930,-5.625,-7.1875,30.5,0
48950,-3.5,-7.375,30.625,0
48970,-2.4375,-9.6875,32.75,0
48990,-2.25,-9.0625,31.75,0
49010,-3,-8.25,30.25,0
49030,-3.6875,-10.25,29.8125,0
49050,0.3125,-10.4375,26.9375,0
49070,1,-11.4375,29.25,0
49090,3.8125,-11.875,27.75,0
49110,2.1875,-15.3125,29.0625,0
49130,-2.9375,-16.8125,32.25,0
49150,-11.375,-15.625,31.8125,0
49170,-11.375,-14.8125,28.75,0
49190,-10.1875,-16.3125,29.4375,0
49210,-5.625,-19,28.9375,0
49230,-2.25,-22.5,29.25,0
49250,2.0625,-24.375,29.25,0
49270,4.4375,-24.75,29.5,0
49290,1.9375,-26.75,29.9375,0
49310,-2.25,-30.0625,31.25,0
49330,-2.3125,-34.3125,30.1875,0
49350,-0.625,-35.625,30.0625,0
49370,3.125,-35.6875,31.875,0
49390,3.1875,-37.3125,31,0
49410,4.8125,-39.125,29.25,0
49430,8.3125,-40.375,30,0
49450,9.6875,-40.5625,32.625,0
49470,6.125,-39.75,33.625,0
49490,4.125,-38.5,30.6875,0
49510,3.875,-38.4375,30.875,0
49530,2.5625,-38.375,33,0
49540,2.25,-37.875,32.8125,0
49560,4.5625,-38.5625,31.75,0
49580,7.8125,-38.5,31.4375,0
49600,8.25,-36.6875,30.8125,0
49620,7.75,-37.375,29.75,0
49640,9.1875,-38.4375,27.75,0
49660,9.3125,-38.1875,27.9375,0
49680,8.875,-37.8125,27.625,0
49700,10.5625,-36.3125,25.5,0
49720,11.5625,-35.125,22.9375,0
49740,7.9375,-35.3125,22.75,0
49760,3.875,-37.0625,21.6875,0
49780,6.8125,-33.25,20.0625,0
49800,7.75,-31.9375,18.0625,0
49820,5.0625,-34.3125,14.125,0
49840,6,-35.25,9.75,0
49860,9.1875,-34.375,8.0625,0
49880,11.0625,-29.625,4.5625,0
49900,12.125,-27.9375,2.375,0
49920,5.875,-32.875,3.5625,0
49940,3.5625,-32.4375,4.9375,0
49960,4.9375,-27.1875,0.1875,0
49980,4.8125,-27.8125,-3.0625,0
50000,0.25,-31.75,-1,0
50020,2.75,-30.5625,0.375,0
50040,8.5,-31.9375,-3.125,0
50060,5.25,-33.375,-8.5625,0
50080,-1.1875,-31.8125,-11.6875,0
50100,-1.625,-30.875,-11.9375,0
50120,2.8125,-30.125,-16.9375,0
50140,7.3125,-27.5,-21.875,0
50160,0.6875,-23.125,-22.5,0
50180,-1.75,-19.125,-23.875,0
50200,1.4375,-18.6875,-27.0625,0
50220,2.375,-20.125,-27.4375,0
50240,-3.1875,-17.875,-28.375,0
50260,-3.4375,-17.5,-30.1875,0
50280,-1.3125,-20.1875,-30,0
50300,-2.0625,-19.3125,-31.25,0
50320,-3.75,-19.25,-27.8125,0
50340,-5.9375,-19.6875,-29.4375,0
50360,-4.9375,-17.125,-32.4375,0
50380,-7.25,-14.4375,-33.625,0
50400,-11,-12.8125,-31.625,0
50420,-13.4375,-12,-31,0
50440,-13.0625,-10.4375,-31.25,0
50460,-15.625,-10.5625,-33.3125,0
50480,-16.375,-9.375,-36.4375,0
50500,-19.125,-11.125,-34.6875,0
50520,-20.375,-12.625,-33.625,0
50540,-19.125,-12.75,-36.5,0
50560,-15.8125,-11.375,-41.1875,0
50580,-18.25,-12.125,-41.5,0
50600,-19.625,-14,-41.3125,0
50620,-20.5625,-13.6875,-40.5625,0
50640,-20,-13.4375,-41.625,0
50660,-19.3125,-12.5,-43.625,0
50680,-21.3125,-12.75,-42.1875,0
50700,-22.375,-12.1875,-44.6875,0
50720,-20.375,-10.25,-50.4375,0
50740,-18.5625,-7.9375,-52,0
50760,-17.9375,-6.75,-45.875,0
50780,-15.625,-4.3125,-55.1875,0
50800,-18.125,-4.625,-52.8125,0
50820,-23.9375,-7.8125,-43.375,0
50840,-18.875,-7.3125,-39.1875,0
50860,-14.625,-6.125,-38.6875,0
50880,-17.0625,-5.3125,-36.25,0
50900,-20.4375,-3.1875,-34.375,0
50920,-18.5625,0.9375,-35.4375,0
50940,-15.5,4.0625,-34.625,0
50960,-15.375,5.625,-33,0
50980,-15.0625,7.5625,-31.3125,0
51000,-13.625,10.3125,-32.4375,0
51020,-12.3125,12.5625,-33.0625,0
51040,-11.6875,14,-30.9375,0
51060,-10.75,17.5,-29.875,0
51080,-8.125,27.0625,-38.4375,0
51100,-5.1875,28.3125,-34.75,0
51120,-8.75,24.8125,-30.3125,0
51140,-6.1875,22,-27.875,0
51160,-5.625,22.1875,-26.6875,0
51180,-4.4375,25.125,-26.0625,0
51200,-2.3125,29.5,-27.5625,0
51220,-0.375,33.3125,-28.4375,0
51240,-3,36.375,-26.75,0
51260,-8.375,36.875,-22.75,0
51280,-9.25,37.375,-25.875,0
51300,-3.5,36.125,-23.5625,0
51320,-3.9375,32.9375,-15.4375,0
51340,-1.3125,34.75,-17.75,0
51360,-0.3125,34.9375,-18.8125,0
51380,-3.9375,25.75,-11,0
51400,-7.8125,17.0625,-4.3125,0
51420,-1.25,12.4375,0.3125,0
51440,2.375,10,0.3125,0
51460,3.375,10.4375,-0.0625,0
51480,2.8125,12,1.6875,0
51500,6.125,14.375,-0.3125,0
51510,9.125,16.625,-1.5625,0
51530,4.75,18.375,-1.1875,0
51550,-2.1875,15.375,-0.3125,0
51570,-4.8125,12,-1.625,0
51590,0.3125,12.1875,-0.875,0
51610,6.5625,14.8125,-0.5625,0
51630,5,17.125,-3.9375,0
51650,-1.6875,17.5,-5.3125,0
51670,-7.125,15.8125,-1.3125,0
51690,-8.5,14.1875,1.0625,0
51710,-8.5,15.4375,1.3125,0
51730,-11.25,17.375,-2.625,0
51750,-10.625,14.5625,-3.9375,0
51770,-2.625,6.75,3.375,0
51790,9.125,6.1875,9,0
51810,9.5,10.625,6.9375,0
51830,-0.375,10.4375,3.4375,0
51850,-6.5625,9.1875,4.75,0
51870,-5.9375,11.75,7.75,0
51890,-4.125,15.75,7.6875,0
51910,-4.625,16.875,7.0625,0
51930,-6.5625,16.5625,5.9375,0
51950,-7.75,16.875,4.75,0
51970,-7.1875,18.125,4.1875,0
51990,-10.125,20.875,7.1875,0
52010,-15.1875,24.25,6,0
52030,-15.6875,24.8125,2.75,0
52050,-13,24.75,3.9375,0
52070,-8.75,26.5625,2.5,0
52090,-4.375,28.4375,0.25,0
52110,-7.6875,23.25,1.25,0
52130,-4.125,16.125,2.5625,0
52150,3.8125,15.4375,4.625,0
52170,7.875,16.8125,6.4375,0
52190,6.5,14,5.6875,0
52210,10.4375,12.25,6.1875,0
52230,10.5625,14.3125,8.875,0
52250,7.25,13.125,9.1875,0
52270,1,12.875,9.1875,0
52290,-7.5625,12,9.5,0
52310,-9,10.25,12.5,0
52330,-5.5,11,16.8125,0
52350,-0.5625,14.8125,17,0
52370,-0.875,15.4375,16.6875,0
52390,-4.75,14.9375,17.75,0
52410,-7.8125,15.125,18.5625,0
52430,-5,15.875,16.625,0
52450,1,17,16.1875,0
52470,0.25,14.8125,21,0
52490,-2.9375,12.5625,20.8125,0
52510,4.125,10.1875,18.625,0
52530,4,10.1875,23.5,0
52550,-4.125,10.125,25.75,0
52570,-12.25,8.625,21.4375,0
52590,-10.75,4.75,20.25,0
52610,-9,3.625,27.0625,0
52630,-6.5625,4,28,0
52650,-7.0625,4.625,25.5625,0
52670,-8.8125,3.9375,24.1875,0
52690,-8.875,1.4375,25.5,0
52710,-6.25,1.875,26.6875,0
52730,-6.25,0.9375,28,0
52750,-6.1875,-1,29.9375,0
52770,-12.5625,-2.3125,34.1875,0
52790,-14.5625,-3.9375,32.1875,0
52810,-10.1875,-7,30.1875,0
52830,-9.9375,-8.25,31.625,0
52850,-11.375,-7.5,31.375,0
52870,-16.0625,-8.875,31.5625,0
52890,-10.5,-10.625,28.875,0
52910,-5.8125,-11.25,27.875,0
52930,-3,-11.5,27.5,0
52950,-4.9375,-14.5,26.8125,0
52970,-3.625,-16.875,26.5625,0
52990,0.125,-16.6875,28.125,0
53010,-1.0625,-17.1875,30.5625,0
53030,-3.3125,-17.9375,31.0625,0
53050,-7.375,-18.125,31.625,0
53070,-9.125,-17.9375,30.1875,0
53090,-10.5,-17.8125,30.9375,0
53110,-10.3125,-18.25,33.0625,0
53130,-7.6875,-18.8125,31.4375,0
53150,-5.375,-20.25,30,0
53170,-3.3125,-21.1875,29.9375,0
53190,-6.375,-22.375,30.75,0
53210,-7.8125,-22.375,30.25,0
53230,-6.1875,-22.75,29.75,0
53250,-2.25,-24.875,28.8125,0
53270,1.0625,-28.625,29.75,0
53290,2.625,-28.6875,30.8125,0
53310,-0.625,-28.0625,28,0
53330,-4.8125,-29.875,26,0
53350,-4.3125,-31.25,27.625,0
53370,-0.4375,-28.375,27.5,0
53390,-2.25,-27.1875,26.125,0
53410,-4.0625,-27.5,25.125,0
53430,-3.125,-25.5,23.5625,0
53450,-0.9375,-23.6875,21.25,0
53470,1.9375,-23.875,19.625,0
53490,4.5,-25.375,18.75,0
53510,6.6875,-26.9375,16.625,0
53530,7.3125,-27.25,16.5,0
53550,2.1875,-27.875,16.3125,0
53570,0.5625,-27.75,15.375,0
53590,3.6875,-28.8125,15.375,0
53610,5,-31.5,15.5625,0
53630,1.0625,-33.875,18.125,0
53650,-1.75,-31.1875,20.5625,0
53670,-1.5625,-31.625,18.875,0
53690,-1.25,-34.875,17.0625,0
53710,-0.75,-36.5,16.5625,0
53730,4.375,-36.875,16.5625,0
53750,8.5625,-37.125,9.6875,0
53770,6.9375,-39.3125,7.125,0
53790,6.125,-39.5,7.375,0
53810,8.6875,-36.25,4.375,0
53830,10.125,-35.6875,1.75,0
53850,9.0625,-35.25,1.3125,0
53870,7.9375,-31.1875,-0.1875,0
53890,11.5625,-26.8125,-2.5625,0
53910,13.5625,-28.25,-2.9375,0
53930,8.4375,-25.4375,-5.375,0
53950,7.5625,-23.5,-10.0625,0
53970,8.8125,-26.6875,-12.5,0
53990,7.8125,-30.3125,-9.6875,0
54010,6.875,-30.125,-9.3125,0
54030,9.0625,-27.5625,-12.5625,0
54050,6.5625,-28.9375,-13.625,0
54070,4.6875,-30.25,-12.625,0
54090,5.5625,-31.3125,-14.375,0
54110,7.8125,-26.875,-21,0
54130,5.0625,-26.9375,-19.0625,0
54150,5.125,-28.875,-18.625,0
54170,6,-30.75,-20.75,0
54190,1.75,-32.3125,-17.3125,0
54210,-1.8125,-32.375,-17.25,0
54230,-2.25,-30.9375,-19.1875,0
54250,-0.625,-27.1875,-23.0625,0
54270,1,-26.0625,-23.75,0
54290,-0.875,-29.625,-21.5625,0
54310,-4.1875,-28.1875,-23.75,0
54330,-4.6875,-22.9375,-26.9375,0
54350,-3.3125,-21.875,-29.125,0
54370,-4.375,-24.6875,-24.6875,0
54390,-7.4375,-28.1875,-21.75,0
54410,-8.75,-29.5625,-21.375,0
54430,-7.0625,-29.5625,-20.9375,0
54450,-8.625,-29.4375,-20.9375,0
54470,-10.625,-28.1875,-22.0625,0
54490,-13.3125,-26.375,-23.625,0
54510,-13.5625,-24.375,-23.875,0
54530,-12.125,-20.1875,-27.5,0
54550,-10.5625,-15.875,-32.5625,0
54570,-10.75,-13.1875,-34.6875,0
54590,-9.375,-13.9375,-32.6875,0
54610,-10.25,-14.75,-31.5,0
54630,-13.1875,-14.4375,-29.375,0
54650,-15.125,-13,-29.4375,0
54670,-14.9375,-11.875,-29.3125,0
54690,-14.5625,-9.9375,-27.875,0
54710,-17.25,-8.5,-26,0
54730,-21.125,-6.5,-27.25,0
54750,-20,-1.3125,-29.375,0
54770,-16.4375,2.375,-30,0
54790,-17.4375,3.625,-30.0625,0
54810,-19.0625,5.1875,-30.75,0
54830,-19.3125,6.25,-31.5,0
54850,-19.5,7.25,-30.875,0
54870,-19,8.125,-30.9375,0
54880,-17.75,8.9375,-32.3125,0
54900,-17.5,11.25,-33.75,0
54920,-18.625,13,-32.625,0
54940,-17.0625,14.6875,-33.125,0
54960,-14.6875,18.375,-34.6875,0
54980,-15.1875,19.3125,-33.375,0
55000,-15.125,22.0625,-34.375,0
55020,-14.375,25.8125,-33.5,0
55040,-15,28.25,-30.9375,0
55060,-14.875,30.625,-31.75,0
55080,-12.9375,34.5625,-34.8125,0
55100,-13.125,36.4375,-34.375,0
55120,-12.125,36.6875,-34,0
55140,-9.4375,35.6875,-33.0625,0
55160,-9.75,34.5625,-31.375,0
55180,-9.5625,33.0625,-30.5625,0
55200,-8.3125,33.5,-32.5,0
55220,-6.125,35.0625,-33.3125,0
55240,-7.1875,33.25,-29.8125,0
55260,-6.4375,31.0625,-27.6875,0
55280,-3.3125,34.875,-30.9375,0
55300,-5.75,37.375,-31.875,0
55320,-14.875,32.6875,-26.4375,0
55340,-14.75,28.875,-19.8125,0
55360,-9.25,27,-15.9375,0
55380,-4.6875,26.8125,-17.8125,0
55400,-7.125,26.875,-17.1875,0
55420,-13.375,24.1875,-11.8125,0
55440,-13.6875,21.4375,-9.8125,0
55460,-11.625,21.5,-9.375,0
55480,-13.1875,23.125,-8.625,0
55500,-14,25.25,-8.75,0
55520,-15.25,24.9375,-8,0
55540,-13.9375,23.1875,-6.125,0
55560,-14.0625,23.9375,-4.5625,0
55580,-14.6875,26,-7.1875,0
55600,-17.8125,24.8125,-4.625,0
55620,-20.0625,20.75,0.8125,0
55640,-19.125,19.5,3.4375,0
55660,-18.5,19.375,3.5,0
55680,-19.8125,18.9375,4.75,0
55700,-21.4375,18.4375,6,0
55720,-23.0625,18.25,5.5,0
55740,-22.6875,19.5625,5.25,0
55760,-26.6875,21.3125,6.5,0
55780,-28.875,22.8125,4.8125,0
55800,-27.3125,21.4375,4.75,0
55820,-27.125,18.6875,7.8125,0
55840,-26.4375,18.125,9.6875,0
55860,-25.1875,19,8,0
55880,-24.875,17.6875,7.0625,0
55900,-24.625,15.6875,9.375,0
55920,-24.8125,15.9375,11.5625,0
55940,-24.9375,17.125,12,0
55960,-24.3125,15.9375,12.125,0
55980,-23.9375,12.4375,14.5625,0
56000,-21.9375,12.375,17.5625,0
56020,-20.625,15.3125,16.5,0
56040,-22.875,14.1875,17.1875,0
56060,-26.9375,12.125,20.125,0
56080,-21.75,12.6875,19.6875,0
56100,-19.3125,11.75,21.125,0
56120,-18.5625,10.5625,21.4375,0
56140,-17.9375,8.9375,20.3125,0
56160,-17.8125,7.125,22.6875,0
56180,-15.25,6,20.625,0
56200,-16.1875,2.6875,21.1875,0
56220,-13.25,1.3125,21.6875,0
56240,-10.875,0.5625,22.125,0
56260,-10.3125,1.0625,21.125,0
56280,-12.25,1.375,21.375,0
56300,-14.3125,3.25,21.0625,0
56320,-15.75,4.8125,20.625,0
56340,-14.625,6.5625,20.9375,0
56360,-15.25,7.625,21.5625,0
56380,-15,8.5,21.375,0
56400,-14.9375,8.625,20.5,0
56420,-18.5,7.875,21.5625,0
56440,-21.75,8,22.3125,0
56460,-22.25,6.5625,20.3125,0
56480,-19.1875,4.6875,19.9375,0
56500,-16.6875,4.9375,20.8125,0
56520,-14.875,5.0625,19.875,0
56540,-14.5,4.625,19.1875,0
56560,-14.5,4.625,19.8125,0
56580,-18.5625,5.125,20.4375,0
56600,-20.625,6.625,18.0625,0
56620,-20.5,8.0625,17.3125,0
56640,-24.125,8.3125,16.5,0
56660,-24.4375,10.75,14.125,0
56680,-21.8125,11.75,11.125,0
56700,-17.8125,10.375,10.25,0
56720,-15.875,9.5,9.9375,0
56740,-17.4375,9.625,10.4375,0
56760,-18.875,8.375,8.375,0
56780,-19.25,6.5625,7.875,0
56800,-19.75,4.3125,10.0625,0
56810,-19.9375,3.1875,10.3125,0
56830,-19.8125,1.75,9.125,0
56850,-17.6875,-0.3125,9.9375,0
56870,-15,-1.875,11.8125,0
56890,-16.0625,-4.0625,12.75,0
56910,-15.9375,-5,12.6875,0
56930,-15.75,-7.0625,13.9375,0
56950,-13.5,-9.3125,15.25,0
56970,-12.6875,-11.25,16.25,0
56990,-13.625,-13.125,16.75,0
57010,-13.6875,-14.75,17.1875,0
57030,-9.375,-15.9375,16.125,0
57050,-6,-17.25,17.625,0
57070,-4.4375,-17.0625,18.6875,0
57090,-6.9375,-17.5,17.5625,0
57110,-5.375,-19,15.625,0
57130,-3.3125,-20.875,17.875,0
57150,-2.625,-20.9375,18.375,0
57170,-1.25,-22,17.25,0
57210,1.25,-34.375,18.25,0
57230,0.3125,-35.4375,17.875,0
57250,1.25,-36.9375,16.0625,0
57270,9.625,-37.75,12.9375,0
57280,12.875,-36.625,15.5,0
57290,13.5,-36.375,14.0625,0
57310,6.8125,-37.9375,15.75,0
57330,-1.875,-37.8125,15.3125,0
57360,-5.1875,-37.9375,19.1875,0
57380,-7.6875,-41.5625,20.0625,0
57400,-8.3125,-44.75,18.375,0
57420,-5.75,-45.5625,18.75,0
57440,-1.6875,-45.4375,19.3125,0
57460,-0.0625,-45,18.625,0
57480,0.5,-43.0625,18.3125,0
57500,-0.125,-41.1875,16.125,0
57520,-2.125,-40.6875,10.8125,0
57540,4.0625,-39.9375,9.8125,0
57560,12.125,-38.375,10.3125,0
57580,10.3125,-38.6875,5.25,0
57600,9.75,-40.625,-0.4375,0
57620,15.375,-40.25,-1.5,0
57640,18.4375,-37.375,1.3125,0
57660,17.375,-34.1875,-0.5,0
57680,18.375,-32.5,-3.8125,0
57700,10.75,-32.1875,-6.5,0
57720,8.6875,-33.0625,-2,0
57740,20.0625,-28.9375,1.1875,0
57760,18.6875,-29.1875,-1.25,0
57780,9.25,-31.4375,-4.875,0
57800,3.5625,-27.9375,-6.375,0
57820,4.5625,-26.6875,-12.25,0
57840,18.875,-29.1875,-9.625,0
57860,19.25,-31.625,-13.375,0
57880,15.4375,-33.375,-18.9375,0
57900,13.5,-32.0625,-20.4375,0
57920,20.8125,-33.25,-20.75,0
57940,25.4375,-34.625,-17.0625,0
57960,19.5625,-35.6875,-15.75,0
57980,11.0625,-36.8125,-15.6875,0
58000,4.4375,-37,-12.375,0
58020,-3.5,-36.625,-8.125,0
58040,4.1875,-32.625,-9.0625,0
58060,10,-31.3125,-11.1875,0
58080,8.125,-32.5625,-11.8125,0
58100,2.6875,-34.6875,-11.125,0
58120,1.3125,-32.125,-12.5,0
58140,6.5,-29.5625,-10.8125,0
58160,8.625,-33.1875,-7.375,0
58180,3.25,-35.375,-4.9375,0
58200,2.8125,-32.5,-2.0625,1001
58220,3.6875,-30.25,-0.25,0
58240,-0.9375,-29.875,1.625,0
58260,-7.6875,-29.125,3.3125,0
58280,-3.9375,-26.875,3.75,0
58300,-2.0625,-25.3125,7.625,0
58320,-4.5,-23.4375,9.4375,0
58340,-2.625,-21.25,10.6875,0
58360,-1.3125,-19.5,11.25,0
58380,-3.5625,-18.625,10.8125,0
58400,-3.5625,-15.125,8.4375,0
58420,-2.4375,-11.5625,6.1875,0
58440,-0.3125,-6.3125,5.8125,0
58460,-1.4375,-1.1875,7.0625,0
58480,-2,4.125,6.4375,0
58500,-2.25,10.3125,4.3125,0
58520,-3.5,18.0625,4.6875,0
58540,-4.3125,25.5,5.75,0
58560,-3.9375,32.3125,5.5625,0
58580,-3.75,39.75,7.0625,0
58600,-4.6875,51.6875,7.3125,0
58620,-5.5,66.3125,12.5,0
58640,-2.625,75,22.125,0
58660,4.0625,85.0625,28.1875,0
58680,0.625,95.8125,33.9375,0
58700,0.3125,108.125,39.5625,0
58720,3.6875,118.75,50.4375,0
58740,16.4375,134.25,57.1875,0
58760,36.625,145.75,59.125,0
58780,34.6875,149.938,66.125,0
58800,7.8125,148.312,73.4375,0
58820,9.875,141.312,68.125,0
58840,18.9375,126.688,60.8125,0
58860,28.5625,110.312,61.1875,0
58880,41.9375,104.062,65.8125,0
58900,48.1875,95.125,68.875,0
58920,57.4375,83.5625,54.875,0
58940,56.9375,66.5,41.5625,0
58960,39.875,53.25,44.5,0
58980,37.1875,44.8125,45.25,0
59000,34.25,34.125,38.6875,0
59020,28.875,21.4375,33.25,0
59040,33.6875,14,30.9375,0
59060,38.6875,14.125,30.625,0
59080,36.5,13.4375,28.75,0
59100,26.625,13.375,27.9375,0
59120,12.8125,17.25,28.3125,0
59140,1.0625,19.5,24.25,0
59160,-8.875,15.3125,20.875,0
59180,-0.9375,14,16.125,0
59200,7.5625,15.5625,11.8125,0
59220,8.3125,13.1875,7.5,0
59240,10.75,10,2.375,0
59260,13.1875,9.0625,-1,0
59280,6.875,8,-2,0
59300,4.3125,6.9375,-1.125,0
59320,6,6,-2.3125,0
59340,8,3,-4.6875,0
59360,6.75,0.9375,-4.75,0
59380,5.5625,0.4375,-3.1875,0
59400,15.5625,0,-2.75,0
59420,15.3125,-1.4375,-3.9375,0
59440,10.875,-5.1875,-1.5,0
59460,7.5,-8.6875,2.0625,0
59480,4.9375,-9.0625,2.6875,0
59500,1.75,-5.375,4.4375,0
59520,11,-5.25,8.375,1000
59540,10,-9.875,11.375,0
59560,1.8125,-12.875,16,0
59580,3.4375,-14.375,14.3125,0
59600,10.25,-19.4375,13.375,0
59620,9.3125,-22.0625,15.4375,0
59640,10.0625,-24.875,16.25,0
59660,11.0625,-27.1875,14,0
59680,11.6875,-28.375,12.4375,0
59700,14,-28.1875,11.75,0
59720,17.8125,-29.125,11.25,0
59740,20.5625,-31.1875,10.25,0
59760,21.75,-31.6875,9.25,0
59780,22.5625,-30.6875,7.875,0
59800,21.6875,-30.5,10,0
59820,14.875,-30.5,9.0625,0
59840,12.875,-32,5.375,0
59860,16.625,-33.5625,4.4375,0
59880,14,-33.0625,3.25,0
59900,13.0625,-31.3125,0.1875,0
59920,9.6875,-30.4375,-1.625,0
59940,4.4375,-31.5625,-2.5,0
59960,4.125,-29.75,-7.25,0
59980,0.25,-28.6875,-10.875,0
60000,0.1875,-26.6875,-11.125,0
60020,-1.625,-24,-7.5,0
60040,-1,-25.6875,-8.875,0
60060,0.125,-24.8125,-11.9375,0
60080,-0.875,-21.8125,-13.5625,0
60090,-2.0625,-20.25,-13,0
60110,-1.9375,-18.5625,-16.625,0
60130,-1.5625,-20.25,-21.25,0
60150,-1.1875,-20.25,-24.875,0
60170,-4.5,-17.625,-26.625,0
60190,-4.5,-12,-26.0625,0
60210,-4.625,-8.9375,-26.6875,0
60230,-6.25,-7.5,-28.8125,0
60250,-8,-5.8125,-27.1875,0
60270,-6.875,-1.875,-29.1875,0
60290,-7.875,-1.75,-30.4375,0
60310,-11.75,-3.75,-32.4375,0
60330,-12.0625,-4.6875,-29.6875,0
60350,-12.3125,-5.5,-28.9375,0
60370,-10.125,-4.4375,-31.5,0
60390,-12.375,-5,-33.8125,0
60410,-9.875,-4.4375,-35.125,0
60430,-10.125,-3.625,-33.875,0
60450,-8.8125,-3.375,-33.8125,0
60470,-9.9375,-2.9375,-37,0
60490,-10.375,-2.125,-40.9375,0
60510,-11.0625,-0.75,-40.375,0
60530,-11.25,0.5,-38.625,0
60550,-11.6875,2.1875,-40.125,0
60570,-11.5625,3.8125,-41.9375,0
60590,-13.25,4.4375,-42.75,0
60610,-13.1875,6.0625,-40.375,0
60630,-12.625,6.6875,-39.8125,0
60650,-13.125,7.125,-42.375,0
60670,-15.25,6.5625,-41.125,0
60690,-16.3125,6.5625,-39.375,0
60710,-14.25,6.3125,-37.6875,0
60730,-15.625,3.8125,-38.25,0
60750,-16.875,2.0625,-39.5,0
60770,-16.6875,2.125,-38.6875,0
60790,-16,3.0625,-37.75,0
60810,-15.875,3.5625,-39.0625,0
60830,-17.875,3.1875,-40.75,0
60850,-21.1875,4.8125,-39.875,0
60870,-18.8125,8.3125,-39.375,0
60890,-15.5,9.75,-39.75,0
60910,-16.4375,10.875,-40.875,0
60930,-17.8125,12.6875,-40.3125,0
60950,-16.1875,13.375,-38.5,0
60970,-15.5,13,-37.0625,0
60990,-16.5625,12.6875,-37.75,0
61010,-16.625,13.5,-37.625,0
61030,-15.6875,16,-37.0625,0
61050,-18.1875,19.5625,-32.625,0
61050,-19.1875,25.1875,-37.8125,0
61070,-19.4375,25.375,-38,0
61090,-17.875,26,-40.9375,0
61110,-12.3125,26.0625,-42.375,0
61130,-10.5625,23.8125,-40.125,0
61150,-11.75,19.9375,-37.0625,0
61170,-12.375,17.8125,-36.1875,0
61190,-9.0625,16.4375,-33.4375,0
61210,-8.3125,13.75,-30,0
61230,-6.6875,12.125,-27.25,0
61250,-4.8125,12.1875,-25.4375,0
61270,-2.6875,13.5,-25.375,0
61290,-4.125,16.3125,-27.5625,0
61310,-4,14.1875,-25.6875,0
61330,-1.875,12.3125,-21.5625,0
61350,1.8125,13.125,-18.25,0
61370,2.75,15.375,-17.5625,0
61390,1.3125,16.625,-16.5,0
61410,-2.4375,14.6875,-15.125,0
61430,-3.625,14.625,-11.8125,0
61450,-1.8125,16.0625,-8.625,0
61470,1.125,15.8125,-7.5,0
61490,0.6875,15.125,-7,0
61510,-1.625,12.0625,-3.9375,0
61530,-3.75,11.25,-1.5625,0
61570,-0.9375,11.25,-1.25,0
61590,-2.6875,11.5,1.625,0
61620,-0.4375,12.5625,4.6875,0
61640,-2.5,11.75,5.1875,0
61660,-2,12.3125,5.0625,0
61680,-2.9375,13.125,6.3125,0
61700,-3.9375,14.5,6.5625,0
61720,-4.8125,19,4.5625,0
61740,-1.9375,18.5,2.5625,0
61760,-3.5,14.375,3.875,0
61780,-5.6875,11.5625,9.1875,0
61800,-7.5,11.125,10.6875,0
61820,-5.6875,11.3125,8.5,0
61840,-6.6875,12.125,6.3125,0
61860,-7.25,14.875,5,0
61880,-9.25,18.75,7.375,0
61900,-8.4375,22.0625,3.9375,0
61920,-4.25,23.25,0,0
61940,-6.125,19.5,-1.125,0
61960,-7.125,16.25,3.125,0
61980,-10.0625,14.6875,8.75,0
62000,-10,16.625,6.625,0
62020,-5.1875,21.25,2.4375,0
62030,-4.5625,22.625,4.625,0
62050,-9.4375,21.1875,5.1875,0
62070,-7.875,22.875,3.3125,0
62090,-4.625,22.9375,1.8125,0
62110,-11.125,19.75,4.8125,0
62130,-15.6875,18.375,6.8125,0
62150,-13.625,19.5625,5.25,0
62170,-12.5625,18.375,4.875,0
62190,-14.625,13.3125,7.75,0
62210,-8.9375,11.0625,8.375,0
62230,-2.5625,11.625,6.1875,0
62250,-6.8125,10.125,7.9375,0
62270,-13.0625,7.0625,8.0625,0
62290,-6.8125,4.625,8,0
62310,-9.875,2.875,11.75,0
62330,-13.8125,3.9375,10.5625,0
62350,-15.3125,3.875,9.75,0
62370,-14.5625,0,11.875,0
62390,-9.9375,-2.5625,13.5,0
62410,-6.125,-1.375,15.4375,0
62430,-7.1875,0.75,16.9375,0
62450,-11.8125,0.6875,19.0625,0
62470,-15.5625,-0.8125,21.625,0
62490,-16.8125,-2.5625,22.6875,0
62510,-16.75,-2.125,23.9375,0
62530,-13.125,-1.0625,23.4375,0
62550,-12.4375,-2.875,24.4375,0
62570,-6.75,-3,24,0
62590,-5.3125,-2.1875,23.4375,0
62610,-4.875,-1.6875,22.1875,0
62630,-5.3125,-1.9375,21.375,0
62650,-3.375,-0.4375,20.1875,0
62670,0.5625,0.75,18.3125,0
62690,-4.4375,-1.3125,20.875,0
62710,-3.9375,-0.125,19.75,0
62730,-3.625,2.9375,17.875,0
62750,-3.375,1.875,21.875,0
62770,-1,-0.375,23.125,0
62790,1.75,0.75,21.1875,0
62810,-9.8125,-1.375,24.375,0
62830,-18.0625,-2.875,26.1875,0
62850,-15.3125,-4.4375,24.125,0
62870,-10.375,-7.625,24.375,0
62890,-7.25,-9.5625,25,0
62910,-5.8125,-10.0625,23.9375,0
62930,-6.625,-10.375,22.6875,0
62950,-4.25,-11.75,22.5625,0
62970,-4.3125,-12.5625,24,0
62990,-7.625,-9.6875,22.9375,0
63010,-7.375,-8.1875,20.375,0
63030,-8.125,-9.8125,21.5625,0
63050,-4.75,-10.375,22.3125,0
63070,-3.75,-10.625,21.8125,0
63090,-5.375,-11.3125,22.0625,0
63110,-0.6875,-13.8125,22,0
63130,-1.5,-19,23.75,0
63150,-2.6875,-23.25,27.875,0
63170,-4.125,-24.625,28.0625,0
63190,-3.875,-24.4375,27.625,0
63210,-7.875,-25.75,30.125,0
63230,-6.5625,-25.75,30.125,0
63250,-0.75,-24,25.3125,0
63270,7.125,-24.8125,24.5,0
63290,5.5625,-28.625,28.8125,0
63310,3.6875,-28.1875,27,0
63330,2.375,-25.875,26.375,0
63360,1.5,-32.75,30.375,0
63380,1.25,-36.1875,29.875,0
63400,2.125,-37.125,29.5,0
63420,3,-37.625,30.75,0
63440,4.4375,-38,29.0625,0
63460,5.375,-38.1875,28,0
63480,4.875,-40.25,27.875,0
63500,1.625,-42,29.25,0
63520,1.8125,-39.5,31,0
63540,4.4375,-37.375,29.6875,0
63560,7.5,-39.8125,23.125,0
63580,12.6875,-41.75,21.25,0
63600,16.125,-40.5625,24.6875,0
63620,19.125,-39.25,22.375,0
63640,22.4375,-38.375,19.5,0
63660,20.8125,-40.125,19.6875,0
63680,16.0625,-43.875,19.5,0
63700,13.625,-45.0625,20.0625,0
63720,12.3125,-43.375,20.5,0
63740,15.8125,-41.625,16.5,0
63760,16.8125,-42.5,14.625,0
63780,14.8125,-43.125,16.9375,0
63800,15.25,-42.9375,16,0
63820,19.875,-42.3125,10.25,0
63840,20.9375,-41.625,6.25,0
63860,24.3125,-39.4375,6.4375,0
63880,33.625,-36.25,3.875,0
63900,42.75,-38.625,-4.5,0
63920,39.875,-42.125,-5.8125,0
63940,23.75,-40.25,0.0625,0
63960,21,-35.8125,-1.9375,0
63980,26.9375,-34.875,-5.875,0
64000,28.3125,-33,-5.125,0
64020,22.5,-35.1875,-2.375,0
64040,19.1875,-39.1875,-2.8125,0
64060,19.125,-36.1875,-4.625,0
64080,15.9375,-32.1875,-5.75,0
64100,6.8125,-32.5,-4.3125,0
64120,7.1875,-35.0625,-3,0
64140,10.125,-32.5,-6,0
64160,12,-25.5625,-10.4375,0
64180,6.4375,-30.875,-7.3125,0
64200,0.625,-32.75,-10.75,0
64220,2.0625,-27.9375,-15.6875,0
64240,5.5,-24.875,-15.9375,0
64260,2.0625,-23.3125,-15.0625,0
64280,-2.0625,-26.5,-14.1875,0
64300,-5.3125,-24.4375,-16.625,0
64320,-5.125,-18.1875,-17.6875,0
64340,-5.4375,-16.375,-18.25,0
64360,-2.9375,-16.125,-20.8125,0
64380,-5.0625,-16.4375,-21.25,0
64400,-7.6875,-13.375,-25.625,0
64420,-7.4375,-11.375,-26.6875,0
64440,-7.3125,-9.25,-30.5625,0
64460,-6.0625,-11.25,-30.6875,0
64480,-8.375,-13.1875,-31.3125,0
64500,-9.1875,-11.6875,-33.3125,0
64520,-9.1875,-11.625,-34.625,0
64540,-9.875,-13.0625,-36.6875,0
64560,-12.3125,-13.5625,-38.5625,0
64580,-13.25,-12.4375,-39.625,0
64600,-13.9375,-11.875,-39.1875,0
64620,-13.9375,-8.8125,-41.25,0
64640,-15.9375,-6.25,-41.6875,0
64660,-17.375,-4.25,-44.75,0
64680,-15.4375,-3.75,-43.25,0
64700,-18.125,-5.1875,-40.25,0
64720,-18.5,-5.375,-40.125,0
64740,-18.1875,-4.5,-41.3125,0
64760,-18.5625,-5,-41.125,0
64780,-20.1875,-5.375,-38.5625,0
64800,-20.625,-4.0625,-35.3125,0
64820,-19.4375,-0.9375,-33.6875,0
64840,-17.875,3.8125,-33.75,0
64860,-17.1875,7.75,-30.5625,0
64880,-18.6875,8.375,-27.75,0
64900,-18.8125,10.125,-27.875,0
64910,-17.75,10.1875,-27.6875,0
64930,-19.1875,10.5625,-30.25,0
64950,-16.5625,12,-32.0625,0
64970,-13.5,10.6875,-31,0
64990,-12.625,6.875,-29.5625,0
65010,-13.5,5.125,-30.625,0
65020,-12.6875,4.625,-32.3125,0
65040,-11.0625,3.6875,-31.875,0
65060,-9.5625,2.3125,-31.625,0
65070,-9.25,1.625,-31.375,0
65090,-9.75,2.875,-31.8125,0
65110,-9.875,5.3125,-32.9375,0
65130,-9.6875,6.6875,-32.6875,0
65150,-9.5,7,-31.3125,0
65170,-9.9375,7.625,-29.875,0
65190,-10.4375,11.1875,-30.625,0
65210,-9.875,14.75,-33.0625,0
65230,-11.0625,16.4375,-33.6875,0
65250,-11.5,19.875,-34.25,0
65270,-9.6875,24.0625,-33.75,0
65290,-5.8125,24.625,-30.875,0
65310,-1.8125,28.5625,-34.4375,0
65320,-1.0625,26.0625,-29.5,0
65340,-4.5625,20.1875,-24.75,0
65360,-5.9375,16,-20.3125,0
65380,-6.125,15,-14.8125,0
65400,-5.25,18.0625,-16.625,0
65420,-3.125,19,-18.5,0
65440,-8.0625,14.375,-12.1875,0
65460,-8.6875,11.8125,-7.625,0
65480,-5.3125,14.1875,-4.9375,0
65500,-3.3125,17.9375,-6.6875,0
65520,-4.8125,18,-5.75,0
65540,-8.3125,17.875,-2.6875,0
65560,-8.875,20,-1.6875,0
65580,-6.4375,20.375,-0.375,0
65600,-3,25.3125,-4.875,0
65620,-2.1875,24.9375,-2.9375,0
65640,-7.3125,20.5,1.9375,0
65660,-8.75,17.125,4.5,0
65680,-7.125,19,3.375,0
65700,-11.5625,22.8125,0.5,0
65720,-15.625,25.4375,-0.4375,0
65740,-13,29,1.5,0
65760,-13.1875,34.0625,1.375,0
65780,-18,41.875,-1.75,0
65800,-21.9375,39.6875,-4.4375,0
65820,-25.125,34.875,-5.6875,0
65840,-28.625,31.5625,3.25,0
65860,-28.1875,29.625,9.375,0
65880,-20.8125,33.4375,4.0625,0
65900,-17.9375,34.5,-0.5625,0
65920,-22.3125,30,3.875,0
65940,-25.875,26.625,8.25,0
65960,-22.625,28.375,6.125,0
65980,-18.25,26,6.0625,0
66000,-19.75,19.4375,13.75,0
66020,-18.125,15.75,18.5,0
66040,-17.125,16.5625,13.1875,0
66060,-24.375,14.8125,10.25,0
66080,-29.6875,12,13.75,0
66100,-26.875,10.125,15.3125,0
66120,-19.1875,10.625,12.875,0
66140,-16.5625,12,13.8125,0
66160,-16.9375,12.0625,14.1875,0
66180,-16.1875,12.1875,11.75,0
66200,-13.8125,11.5,10.875,0
66220,-13.5625,9,10.5625,0
66240,-12.75,6.5,12.125,0
66260,-15.125,6.3125,16.6875,0
66280,-15.1875,7.75,16.8125,0
66300,-10.375,8.5,14.625,0
66320,-13.125,7,19.1875,0
66340,-16.5,7.75,22.9375,0
66360,-15.875,9.4375,21.75,0
66380,-18.6875,7.5625,22.25,0
66400,-20.1875,5.0625,23.9375,0
66420,-16.25,4.6875,24.1875,0
66440,-13.4375,5.625,24.75,0
66460,-6.6875,7.875,22.75,0
66480,-4.5,6.6875,23,0
66500,-3.0625,6.25,23.4375,0
66520,-4.375,6.3125,22.9375,0
66540,-6.8125,5.6875,24.5,0
66560,-8.125,4.875,24.4375,0
66580,-2.625,4.1875,21.875,0
66600,0.625,2.5625,23.25,0
66620,-1.375,-1.3125,24.25,0
66640,0.375,-3,22.25,0
66660,3.375,-4.25,23.875,0
66680,2.1875,-6.9375,27.3125,0
66700,-4.0625,-9.1875,28.125,0
66720,-4.8125,-10.4375,27.125,0
66740,-8.5625,-14.125,30.9375,0
66760,-8.6875,-15.1875,33.3125,0
66780,-4.9375,-13.5625,30.75,0
66800,-6.625,-14.6875,31.125,0
66820,-5.625,-15,30.5,0
66840,0.9375,-14.75,25.875,0
66860,4.3125,-17,27.0625,0
66880,4.5,-18.1875,27.9375,0
66900,4.1875,-20.75,26.3125,0
66920,5.9375,-23.75,25.75,0
66940,7.625,-25.125,27.375,0
66960,8.4375,-26.4375,28.375,0
66980,8.6875,-27.75,27.4375,0
67000,8.5625,-28.3125,29.875,0
67020,6,-29.0625,30.3125,0
67040,3.5,-29.875,30.75,0
67060,1.75,-30.625,31.4375,0
67080,3,-31.75,30.75,0
67100,5.125,-33.125,30.0625,0
67120,6.0625,-35.25,30.75,0
67140,7.25,-37.5,30.75,0
67160,5.875,-40.875,30.75,0
67180,6.875,-41.3125,31.8125,0
67200,5.75,-42.25,33.25,0
67220,3.3125,-44.625,32.625,0
67240,4.375,-45.875,31.5,0
67260,4.875,-46.25,32.375,0
67270,5.625,-46.6875,31.6875,0
67290,4.3125,-47.75,29.5625,0
67310,7.3125,-48,28.125,0
67330,6.3125,-49.8125,27.8125,0
67350,9.75,-48.5,27.625,0
67370,12.8125,-48.875,28.1875,0
67390,8.6875,-52.125,25.5,0
67410,6.625,-51.25,20.625,0
67430,6.875,-49.5,15.75,0
67450,11.8125,-47.75,15.4375,0
67470,14.4375,-48.3125,15.4375,0
67490,17.3125,-48.75,11,0
67510,15.8125,-45.0625,8.125,0
67530,7.9375,-40.6875,8.875,0
67550,9.6875,-44.0625,9.375,0
67570,16.0625,-48,3.125,0
67590,16.75,-50.9375,-2,0
67610,12.9375,-53.1875,-4.0625,0
67630,15.4375,-53.3125,-3.75,0
67650,16.5625,-54.4375,-5.9375,0
67670,12.125,-51.1875,-9.5,0
67690,7.125,-43.625,-10.875,0
67710,6.0625,-41.9375,-11.0625,0
67730,9.6875,-47.25,-12.1875,0
67750,6.1875,-47.9375,-11.6875,0
67770,-1.375,-47.1875,-14.25,0
67790,-4.625,-43.875,-19.375,0
67810,-4.25,-35.6875,-23.5,0
67830,-1.25,-32.75,-23.3125,0
67850,1.5,-32.6875,-21.375,0
67870,2.4375,-30.1875,-25,0
67890,-1.3125,-26.8125,-29.4375,0
67910,-5.5,-20.4375,-32.25,0
67930,0.8125,-12.6875,-33.3125,0
67950,7.25,-19.5,-33,0
67970,2.375,-24.625,-33.75,0
67990,-6.6875,-22.4375,-32.375,0
68010,-10.875,-14.125,-36,0
68030,-5.75,-7.625,-41.4375,0
68050,-2.5,-16.4375,-35.3125,0
68070,-6.875,-21.9375,-31.9375,0
68090,-11.375,-23.375,-30.875,0
68110,-14.0625,-21.125,-35.5,0
68130,-13.4375,-18.6875,-34.875,0
68150,-16.5625,-20.0625,-30.4375,0
68170,-16.1875,-21.9375,-28.9375,0
68190,-15.125,-20.5625,-28.9375,0
68210,-16.375,-19.5625,-28.5,0
68230,-18.8125,-18.875,-28.625,0
68250,-18.875,-13.5625,-34.4375,0
68270,-13.125,-2.25,-41.3125,0
68290,-9.75,-2.1875,-37.0625,0
68310,-13.3125,-7.3125,-33.3125,0
68330,-17.0625,-8.375,-31,0
68350,-20.375,-8.6875,-28.8125,0
68370,-18,-4.625,-31.75,0
68390,-15.8125,-3.125,-28.5,0
68410,-17.0625,-2.375,-25.9375,0
68430,-20.125,-2.5,-24.9375,0
68450,-23.25,-1.75,-24.375,0
68470,-24.8125,1.5625,-24.1875,0
68490,-21.1875,5,-24.1875,0
68510,-19.375,6.5,-24.5,0
68530,-20.25,7.375,-25.375,0
68550,-25.3125,8.5,-25,0
68570,-27.75,10.75,-26.125,0
68590,-24.875,15.0625,-28.1875,0
68610,-21.8125,20.3125,-31.5,0
68630,-17,23.3125,-30.5625,0
68650,-16.5625,25.0625,-31.0625,0
68670,-19.1875,25.0625,-31.8125,0
68690,-22.4375,26.25,-31.0625,0
68710,-21,33.625,-32.75,0
68730,-14.375,37.4375,-30.875,0
68750,-11.5,38.8125,-30,0
68770,-11.625,40.375,-29.375,0
68790,-18.8125,39.75,-28.3125,0
68810,-18.25,43,-27.3125,0
68830,-11.3125,52.875,-29.3125,0
68850,-8.25,61.875,-33.375,0
68870,-9.3125,53,-27.4375,0
68890,-11.0625,43.875,-17.8125,0
68910,-12.75,39.25,-10.75,0
68930,-12.6875,37.375,-12.4375,0
68950,-9.8125,38.8125,-16.5,0
68970,-8.625,43.1875,-18.4375,0
68990,-12.9375,41.875,-14.6875,0
69010,-12.125,39.3125,-12.5625,0
69030,-11.375,38.625,-10.9375,0
69050,-14.1875,39.9375,-10.9375,0
69070,-17.75,40.75,-11.625,0
69090,-17.875,40.375,-10.875,0
69110,-18.375,38,-3.75,0
69130,-20.25,37.8125,-1.875,0
69150,-20.9375,42.375,-4.4375,0
69170,-23.0625,43.0625,-5.3125,0
69190,-26.6875,36.5625,-1.25,0
69210,-24.75,29.8125,7.125,0
69230,-20.625,27.125,9.0625,0
69250,-18.4375,26.25,3.9375,0
69270,-21.9375,25,4.6875,0
69290,-21.75,24.0625,9.8125,0
69310,-21.25,25.4375,6.25,0
69330,-24.625,26.625,5.6875,0
69350,-34,27.25,15.25,0
69370,-31.3125,26.375,18.125,0
69390,-23.625,24.9375,15.6875,0
69410,-27.5625,23.0625,16,0
69430,-31.875,23.6875,13.1875,0
69450,-31.3125,22.25,12.125,0
69470,-25.0625,22.25,11.625,0
69490,-21.25,22.5,10.125,0
69510,-27.4375,21.5625,10.9375,0
69530,-33.8125,21.75,13.8125,0
69550,-31.9375,22.875,9.25,0
69570,-23.4375,23.5625,5,0
69590,-24.4375,23.25,10.9375,0
69610,-30.6875,23.6875,11.0625,0
69630,-33.1875,22.3125,8.0625,0
69650,-33.375,21.4375,9.875,0
69670,-33.25,19.9375,12.3125,0
69690,-34.4375,18.6875,14.0625,0
69710,-38.8125,16,18.125,0
69730,-39.5,13.9375,16.5,0
69750,-34.1875,11.4375,16.1875,0
69770,-33.75,8.3125,20.0625,0
69790,-29.875,8.4375,20.5,0
69810,-25.9375,8.9375,20.375,0
69830,-28.125,6.6875,21,0
69850,-27.3125,5.6875,21.4375,0
69870,-24.4375,5.625,22.6875,0
69890,-18.375,3.9375,23.25,0
69910,-19.5,0.25,25.4375,0
69930,-18.8125,-2.375,22.9375,0
69950,-13.25,-3.5,21.8125,0
69970,-10.875,-4.6875,24.75,0
69990,-9.8125,-5.5,24.9375,0
70010,-9.8125,-7.25,23.375,0
70030,-9.3125,-8.1875,23.75,0
70050,-13,-9.625,25.8125,0
70070,-15.25,-10.625,24.8125,0
70090,-18,-12.625,28.125,0
70110,-25.4375,-12.875,28.5,0
70130,-26.6875,-13.6875,26.3125,0
70150,-23.4375,-16.8125,26.1875,0
70170,-18.3125,-20.4375,26.5,0
70190,-11.6875,-24.25,26.1875,0
70210,-6,-25.75,27.25,0
70230,-3.9375,-26.5625,25.875,0
70250,-1.0625,-28.625,25.625,0
70270,3.4375,-31.3125,26.4375,0
70310,1.25,-47,30.6875,0
70320,4.125,-54.1875,29.4375,0
70330,3.3125,-56,31.125,0
70350,3.4375,-56.0625,30.75,0
70370,6,-53.4375,24.5,0
70390,6.6875,-52.4375,23,0
70410,3.0625,-53.5625,25,0
70430,5.5625,-51.4375,21.25,0
70450,14.3125,-50.6875,14.5,0
70470,19.0625,-51.875,13.6875,0
70490,18.9375,-51.1875,14,0
70510,16.4375,-50.5625,12.0625,0
70520,14.5625,-50.625,5.5625,0
70540,17.875,-50.5,4.3125,0
70560,18,-49.6875,5.75,0
70580,19.8125,-47.0625,2.0625,0
70600,21.8125,-43.9375,-1.1875,0
70620,28,-43.0625,-6.4375,0
70640,29.875,-42.0625,-3.75,0
70660,20.8125,-41,-0.625,0
70680,18.0625,-40.3125,-0.6875,0
70700,14.75,-39.1875,-0.1875,0
70720,11.6875,-37.375,-0.4375,0
70740,7.875,-33.1875,-2.5,0
70760,20.8125,-31,-0.5,0
70780,23.875,-41.375,0.5,0
70800,17.3125,-43.6875,-2.4375,0
70820,12.6875,-42.1875,-1,0
70840,10.3125,-40.125,-4.875,0
70860,13,-37.6875,-11.5625,0
70880,18.75,-35.875,-14.6875,0
70900,16.75,-35.9375,-13.625,0
70920,14.625,-36.25,-15.375,0
70940,19.1875,-34.4375,-16.875,0
70960,18.5,-37.6875,-15.625,0
70980,14.0625,-38.75,-14.1875,0
71000,7.875,-37.5,-14.1875,0
71020,13.25,-38.6875,-18.75,0
71040,14.9375,-38.4375,-18.3125,0
71060,12.5,-37.375,-20.8125,0
71080,14.0625,-37.75,-23.6875,0
71100,11.375,-35.75,-20.5625,0
71120,8.625,-32.1875,-18,0
71140,13.125,-28.9375,-17.125,0
71160,13.9375,-28.25,-16.375,0
71180,10.1875,-28.3125,-13.5625,0
71200,6.375,-27.6875,-14.4375,0
71220,4.3125,-29.5625,-13,1001
71240,2.1875,-30.375,-9.5,0
71260,-0.9375,-29,-5.875,0
71280,-0.375,-25.625,-3.125,0
71300,1.5,-21.5,0.25,0
71320,1.125,-17.1875,3.3125,0
71340,-2.1875,-14.0625,5.375,0
71360,-3.5,-10.5625,6.5,0
71380,-6.125,-7.625,7.5625,0
71400,-5.8125,-5.0625,7.3125,0
71420,-4.75,-2.0625,5.1875,0
71440,-3.5625,1.0625,2.375,0
71460,-4.25,5.5,0.75,0
71480,-7.625,10.125,2.0625,0
71500,-7.375,18.375,1.9375,0
71520,-5.5,27.0625,-1.6875,0
71540,-1.125,36.375,-3.125,0
71560,3.75,50.8125,0.375,0
71580,0.3125,61.875,3.9375,0
71600,4.3125,71.75,3.375,0
71620,8.375,83.0625,4.625,0
71640,20.375,96.0625,7.0625,0
71660,16.875,104.312,8,0
71680,17.5625,115.625,4.5,0
71700,33.625,134.625,2,0
71720,42.8125,138.625,10.4375,0
71740,22.5625,136.188,13.875,0
71760,10.8125,144.75,13.625,0
71780,21.8125,153.062,22.0625,0
71800,20.3125,143,37.125,0
71820,-2.1875,126.188,29.75,0
71840,17.3125,130,28.875,0
71860,41.875,129.75,41.5625,0
71880,19.9375,107.25,46.875,0
71900,20.25,95.25,42.5,0
71920,31.5,94.1875,44.375,0
71940,26.1875,76.8125,42.25,0
71960,25.0625,58.9375,33.1875,0
71980,31.25,50.3125,35.4375,0
72000,30.875,44.1875,38.75,0
72020,27.4375,36.625,31.5,0
72040,20.3125,26.8125,27.625,0
72060,19.125,21,26.625,0
72080,17.8125,22.125,25.9375,0
72100,8.5625,14.4375,21.1875,0
72120,11.9375,9.75,14.25,0
72140,12.875,9.3125,11.0625,0
72160,8.625,9.9375,7.375,0
72180,5.25,7.875,5.8125,1000
72200,4.6875,2.9375,4.625,0
72220,4.25,1.25,3.1875,0
72240,8.875,1.5,4.25,0
72260,11.3125,0,4.1875,0
72280,7.75,-1.9375,2.875,0
72300,6.5625,-2.6875,0.5625,0
72320,9.875,-0.75,-0.5,0
72340,9.125,0.4375,0.1875,0
72360,5.5625,0.3125,-0.125,0
72380,6.8125,2.8125,0.1875,0
72400,7.9375,4.9375,1.0625,0
72420,0.625,4.0625,1.8125,0
72440,0,1.5,3.125,0
72460,3.4375,-1.25,1.25,0
72480,1.25,-6.75,4.1875,0
72490,4.0625,-10.875,7.375,0
72510,6.5625,-13.1875,9.0625,0
72530,9.8125,-15.875,9.625,0
72550,7.4375,-19.5625,11.0625,0
72570,1.3125,-22.25,16.875,0
72590,1.1875,-20.1875,20,0
72610,4.8125,-19.3125,17.3125,0
72630,8.6875,-20.875,17.4375,0
72650,9.375,-24,20.875,0
72670,8.125,-26.875,21.625,0
72690,10.0625,-28.75,17.875,0
72710,15.1875,-29.75,18.75,0
72730,14.4375,-32.5,18.3125,0
72750,13.5625,-32.625,16.8125,0
72770,15.25,-31.25,15.875,0
72790,20,-32.5,13.25,0
72810,26.4375,-37.625,10.3125,0
72830,29.375,-37.9375,7.875,0
72850,28.125,-35.3125,5.1875,0
72870,19.625,-31.9375,0.875,0
72890,10.5,-31.1875,-4.3125,0
72910,11.375,-31.8125,-5.625,0
72930,16.8125,-30.375,-3.125,0
72950,17.3125,-28.4375,-3.25,0
72970,13.5,-26.75,-8.125,0
72990,9.4375,-25.5,-10.875,0
73010,5.6875,-22.875,-9.625,0
73030,3.625,-21.5,-8.6875,0
73050,3.875,-21,-11.875,0
73070,4.25,-22.0625,-16.375,0
73090,3.9375,-20,-21.9375,0
73110,4.3125,-17.125,-21.3125,0
73130,1.1875,-20.6875,-18.25,0
73150,-3.1875,-23.6875,-22.3125,0
73170,-4.25,-22.375,-27.75,0
73190,-4.9375,-19.5,-30.3125,0
73210,-5.3125,-17.75,-32.25,0
73230,-6.8125,-17.25,-35.125,0
73250,-5.875,-16.875,-38.4375,0
73270,-3.375,-17.0625,-40,0
73290,-4,-17.0625,-44.125,0
73310,-7.875,-16.75,-39.625,0
73330,-11.1875,-19.4375,-38,0
73350,-8.4375,-18.5625,-39.3125,0
73370,-7.75,-15.5625,-39.9375,0
73390,-9.6875,-12.6875,-39.25,0
73410,-10.75,-9.9375,-41.4375,0
73430,-10.125,-6.625,-43.0625,0
73450,-8.75,-5.8125,-42.75,0
73470,-8.875,-4,-43.1875,0
73490,-11.0625,-0.125,-44,0
73510,-13.4375,2.6875,-46.375,0
73530,-12.375,3.8125,-44.9375,0
73550,-13.4375,2.875,-44.1875,0
73570,-14.1875,2.5,-45.6875,0
73590,-14.4375,3.75,-48.375,0
73610,-15.1875,6.25,-48.1875,0
73630,-14.6875,6.625,-46.625,0
73650,-17.875,5.0625,-44.3125,0
73670,-22.3125,5.0625,-45.5625,0
73690,-24,6.3125,-48.4375,0
73710,-23.8125,7.625,-49.6875,0
73730,-21.8125,8.5,-47.9375,0
73750,-20.25,9.3125,-48.4375,0
73770,-17.1875,10.5625,-53.125,0
73790,-13.875,10.125,-55.625,0
73810,-13.9375,8.8125,-54.875,0
73830,-12.75,8.625,-54.5625,0
73850,-7.875,7.5,-56.3125,0
73870,-6.8125,5.8125,-57.375,0
73890,-13,3.875,-54.4375,0
73910,-18.1875,3.9375,-51.0625,0
73930,-19.375,7.1875,-50,0
73950,-12.9375,11.8125,-49.4375,0
73970,-8.5,15.3125,-46.1875,0
73990,-8.625,17.5,-43.5625,0
74010,-11,17.4375,-41.1875,0
74030,-12.125,18.25,-38.125,0
74050,-11.1875,20.3125,-33.75,0
74070,-6.6875,23.9375,-30.4375,0
74090,-1.625,22.8125,-24.625,0
74110,0.1875,22.4375,-25.1875,0
74130,-0.9375,19.8125,-24.25,0
74150,-4.1875,16.8125,-19.5,0
74170,-3.3125,19.0625,-17.5625,0
74190,3.625,17.75,-14.5625,0
74210,8.375,18.4375,-11.1875,0
74230,9.5625,23.6875,-11.875,0
74250,4.1875,23.75,-13.4375,0
74270,-0.3125,20.1875,-3.625,0
74290,-7.125,21.5,4.9375,0
74310,-7.8125,21.5625,1.6875,0
74330,-0.75,18.1875,-5.3125,0
74350,-1.5,13.6875,-1,0
74370,-2.625,13.5,4.4375,0
74390,-1.25,16.1875,6.125,0
74410,-2.25,17.75,4.1875,0
74430,-7.5,18.4375,1.1875,0
74450,-9.625,15.625,0.0625,0
74470,-8.875,13.625,4,0
74490,-1.5,17.9375,4.9375,0
74510,0.125,20.375,5.375,0
74530,-6.75,16.625,5.3125,0
74550,-7.6875,13.4375,6.375,0
74570,-7.3125,10.75,10.6875,0
74590,-8.3125,9.1875,12.75,0
74610,-5,9.6875,10.25,0
74630,-4.5,10.125,9.25,0
74650,-6.9375,13.3125,10.875,0
74670,-11.125,12.6875,11.3125,0
74690,-8.9375,14.8125,9.5,0
74710,-6,16.4375,9,0
74730,-8.75,13.0625,11.6875,0
74750,-5.3125,11.75,10,0
74770,2.8125,15.625,7.625,0
74790,-5.6875,16.875,13.0625,0
74810,-17.625,13.25,14.3125,0
74830,-18.0625,13.1875,14.4375,0
74850,-14.875,14.25,16.8125,0
74870,-16.625,14.3125,19.5,0
74890,-10.5625,12.25,22.125,0
74910,-2.375,12.8125,22.1875,0
74930,-3.0625,14.75,22.9375,0
74950,-10.875,12.3125,23.625,0
74970,-15.0625,10.0625,22.625,0
74990,-14.0625,9.4375,23.3125,0
75010,-13.375,9.125,24.6875,0
75030,-12.125,8.9375,24.3125,0
75050,-10.375,9,23.3125,0
75070,-9.25,9.4375,22.875,0
75090,-13.125,7.1875,27.3125,0
75110,-13.25,7.4375,26.125,0
75130,-9.5625,10,23.8125,0
75150,-14.875,7.625,26.8125,0
75170,-16.875,6.9375,27.375,0
75190,-12.4375,8.6875,23.75,0
75200,-13.9375,6.6875,24.5,0
75220,-20.5625,2.6875,28.6875,0
75240,-14.1875,4.3125,25.1875,0
75260,-4.4375,6.4375,24.4375,0
75280,-0.8125,4.5625,27.375,0
75300,-5.5625,2.6875,29.1875,0
75320,-12.375,3.4375,27.25,0
75340,-12.0625,0.9375,28.4375,0
75360,-3,-1.75,33.3125,0
75380,3.0625,-2,30.0625,0
75400,3.0625,-7.5625,30.9375,0
75420,1.6875,-13.6875,36.5,0
75440,4.3125,-14.75,35.8125,0
75460,7.625,-15.375,33.5,0
75480,8.625,-18.375,38.5625,0
75500,6.875,-22.125,42.5,0
75520,4.875,-22.8125,39.9375,0
75540,5.8125,-21.625,38.6875,0
75560,-2.25,-25.3125,41.5625,0
75580,-2.5,-27.625,45.9375,0
75600,11.625,-24.6875,45.3125,0
75620,11,-25,42.4375,0
75640,6.4375,-29.1875,39.75,0
75660,1.0625,-34,42.0625,0
75680,1.125,-36.125,43.1875,0
75700,8.375,-37.625,41.0625,0
75720,11.25,-39.125,41.5,0
75740,6,-40.0625,41.8125,0
75760,3.0625,-42.125,41.375,0
75780,4.4375,-43.5,40.5,0
75800,2.375,-44,39.8125,0
75820,1.875,-43.6875,38.375,0
75840,2.625,-44.8125,36.5625,0
75850,8,-46.0625,36.1875,0
75870,10,-47.3125,35.9375,0
75890,9.875,-48.5625,34.5,0
75910,6.9375,-46.9375,31.9375,0
75930,6,-46.0625,30.25,0
75950,5.9375,-45.9375,32.1875,0
75970,6.6875,-46.6875,32.0625,0
75990,8.9375,-43.4375,27.8125,0
76010,6.9375,-38.25,23.375,0
76030,7.125,-36.75,20.0625,0
76050,7.8125,-37.3125,18.5625,0
76070,9.5625,-36.1875,13.8125,0
76090,16.4375,-32,5.5625,0
76110,18.375,-31.5,1.625,0
76130,21.3125,-29.5625,-0.1875,0
76150,11.9375,-26.75,2.5,0
76170,14.625,-26.625,-3,0
76190,24.125,-25.0625,-6.5,0
76210,23.3125,-19.75,-5.4375,0
76230,11.5625,-19.625,-7.9375,0
76250,9.125,-19.25,-12.125,0
76270,9.75,-20.0625,-14.5,0
76290,13.9375,-17.4375,-15.9375,0
76310,4.4375,-18.6875,-11.0625,0
76330,2.375,-22.1875,-14.5625,0
76350,1.3125,-24.125,-16.25,0
76370,1.6875,-22.75,-20.8125,0
76390,2.375,-21.625,-20.6875,0
76410,-1.5,-22.9375,-21.75,0
76430,-3,-26.125,-23.75,0
76450,-2.3125,-27.8125,-26.125,0
76470,-0.6875,-23.9375,-26,0
76490,-1.4375,-22.5,-24.1875,0
76510,-4.4375,-23.875,-24.4375,0
76530,-8.4375,-27.4375,-23.6875,0
76550,-9.3125,-29.125,-26.625,0
76570,-6.4375,-26.375,-28.625,0
76590,-6.25,-25.5625,-27.4375,0
76610,-10.8125,-27.8125,-28.0625,0
76630,-12.875,-26.4375,-32.0625,0
76650,-13.875,-23.25,-31.6875,0
76670,-12.9375,-19.5,-32.8125,0
76690,-13.5,-18,-33.4375,0
76710,-15.875,-18.5,-34.0625,0
76730,-17.75,-18,-33.9375,0
76750,-16.875,-15.75,-35.375,0
76770,-16.875,-14.75,-37,0
76790,-17.6875,-15.6875,-37.9375,0
76810,-16.5,-17.625,-37.8125,0
76830,-15.6875,-19.0625,-36.3125,0
76850,-16.5,-18.3125,-39.5625,0
76870,-15,-15.6875,-44.8125,0
76890,-17.375,-15.3125,-44.5,0
76890,-16.0625,-16.875,-39.3125,0
76910,-19.5,-14.3125,-38.0625,0
76930,-21.375,-10.625,-40.625,0
76950,-19.6875,-8,-39.8125,0
76970,-19.375,-5.875,-37.8125,0
76990,-21.1875,-4.8125,-36.6875,0
77010,-22.75,-3,-36.5625,0
77030,-22.8125,0.3125,-35.75,0
77050,-20.875,5,-38.25,0
77070,-19.875,7.0625,-37.0625,0
77090,-23.875,7,-34.125,0
77110,-25.1875,7.1875,-31.6875,0
77130,-24.9375,8.25,-30.375,0
77150,-23,11,-30.9375,0
77170,-20.6875,13.9375,-31.1875,0
77190,-20.4375,17.8125,-29.75,0
77210,-21.75,21.4375,-30.75,0
77230,-20.25,23.25,-34.25,0
77250,-19.9375,28.625,-39.0625,0
77270,-26.8125,32.4375,-32.1875,0
77290,-32.75,32.125,-21.75,0
77310,-28.125,37.75,-28.5625,0
77330,-19.4375,39.0625,-31.25,0
77350,-17.3125,32.3125,-19.4375,0
77370,-16,27.5625,-12.1875,0
77390,-14.375,26.6875,-14.0625,0
77410,-13,28.1875,-17.3125,0
77430,-15.625,26.3125,-15,0
77450,-18.5625,16.875,-5.875,0
77470,-9.5625,12.8125,-3.4375,0
77490,-2,12.75,-1.9375,0
77510,-0.8125,16.5,-7.9375,0
77530,-3.1875,17.0625,-4.375,0
77550,-9.125,15.4375,2.0625,0
77570,-6.3125,14.3125,1.9375,0
77590,-0.375,17,1.4375,0
77610,-1.4375,22.25,0.3125,0
77630,-5,20.1875,-0.0625,0
77650,-7,15.5625,2.125,0
77670,-3.125,14.25,4.5625,0
77690,-1.0625,14.25,4.8125,0
77710,-2.25,17.3125,0.125,0
77720,-2.75,18.5625,1.8125,0
77750,-5.75,17.1875,4.0625,0
77770,-3.9375,17.875,2.0625,0
77790,-2.6875,24.3125,0.4375,0
77800,-5.8125,29.1875,0.125,0
77820,-8.625,27.75,4.125,0
77840,-8.9375,23.9375,8.625,0
77860,-7.75,24.8125,7.6875,0
77880,-8.75,30,5.625,0
77900,-15.625,29.0625,3.4375,0
77920,-20.5,24.9375,6.125,0
77940,-16.6875,24.4375,7.3125,0
77960,-11,27.5,9,0
77980,-9.1875,26.6875,7.4375,0
78000,-5.3125,26,3.6875,0
78020,-7.5625,21.1875,7.625,0
78040,-10.5,18.875,11.4375,0
78060,-16.125,14.875,11.5,0
78080,-20.4375,9.1875,16.125,0
78100,-16.25,9.6875,16.125,0
78120,-9.75,11.75,14.0625,0
78140,-5,12.25,15.6875,0
78160,-6.625,12.25,18.5,0
78180,-10.5,16.25,15.4375,0
78200,-13.0625,18.5,13.6875,0
78220,-15.8125,15.375,16.8125,0
78240,-10.9375,15.25,16.5625,0
78270,-12,12.4375,21.625,0
78290,-7.625,11.6875,18.625,0
78310,-5.5625,10.4375,20.6875,0
78330,-9.5625,8.4375,24.8125,0
78350,-11.4375,9.25,24,0
78370,-13.375,9.6875,23.5625,0
78390,-10.5,9.625,25.1875,0
78410,-12.5,8.6875,28.125,0
78430,-12.8125,9.1875,27.625,0
78450,-9.1875,6.9375,25,0
78470,-7.375,4.8125,27.6875,0
78490,-10.5,4.625,31.5,0
78510,-12.75,3.1875,29.625,0
78530,-14.25,-0.875,30.375,0
78550,-10.5,-3.625,31.875,0
78570,-5.625,-6.4375,32.6875,0
78590,-3.3125,-9.9375,35.1875,0
78610,-0.25,-11.1875,34.625,0
78630,1.1875,-13.125,34.1875,0
78650,-1.5625,-15.4375,37.875,0
78670,-6.125,-16.875,41.875,0
78690,-6.4375,-15.4375,39.25,0
78710,-5.3125,-16.875,38.125,0
78730,-6.25,-21.125,40.875,0
78750,-7.25,-23.3125,42.4375,0
78770,-7.3125,-24.6875,40.6875,0
78790,-4.9375,-29.0625,38.375,0
78810,-10.3125,-32.5625,42.6875,0
78830,-15,-30.5,41.5,0
78850,-12,-27.9375,36.5625,0
78870,-10.5625,-28.5625,36.875,0
78890,-11.3125,-30.25,38.0625,0
78910,-4.625,-30.5,34.25,0
78930,3.1875,-31.875,31,0
78950,4,-34.6875,32.25,0
78970,2.6875,-35.375,30.25,0
78990,3.8125,-35.5625,27.625,0
79010,4.125,-36.5,27.625,0
79030,3.6875,-37,28.0625,0
79050,2.5625,-39.375,24.875,0
79070,4.125,-39.375,25.1875,0
79090,6.875,-40.75,27.875,0
79110,4.9375,-45.625,25.375,0
79130,7.6875,-45.75,25.375,0
79150,5.875,-48.0625,24.125,0
79170,6.875,-50.9375,21.625,0
79190,11.3125,-51.8125,15.6875,0
79210,20,-52.9375,8.75,0
79230,21.5625,-51.9375,7.625,0
79250,21.375,-53.25,6.3125,0
79270,22.8125,-57.25,4.5,0
79290,23,-57.75,3.8125,0
79310,19.4375,-57.3125,5.0625,0
79330,17.5625,-57.4375,4.6875,0
79350,15,-60.375,4.375,0
79370,12.5,-58.75,5.75,0
79390,3.9375,-54.5625,4.375,0
79400,5.5625,-54.6875,6.1875,0
79420,8.8125,-52.625,0.5,0
79440,9.25,-52.1875,-4.75,0
79460,1.875,-51.875,-5.6875,0
79480,2.6875,-48.5625,-8.375,0
79500,5.6875,-40.3125,-15.1875,0
79520,7.625,-42,-14.75,0
79540,3.8125,-45.125,-14.125,0
79560,1.625,-44.25,-18.5,0
79580,1.125,-40.8125,-24.375,0
79600,-1.1875,-34.9375,-30,0
79620,-4.625,-36.375,-27.4375,0
79640,-5.375,-36.5625,-29.625,0
79660,-5.4375,-32.5625,-34.5,0
79680,-8.4375,-27.125,-36.125,0
79700,-8.75,-25.125,-36.4375,0
79720,-7.125,-21.5625,-41.375,0
79740,-8.6875,-17.6875,-43.25,0
79760,-14.5,-17.625,-41.9375,0
79780,-15,-17.375,-42.0625,0
79800,-17.4375,-17.125,-41,0
79820,-19.5,-15,-37.75,0
79840,-20.5,-13.9375,-36.875,0
79860,-20.1875,-9.4375,-39.1875,0
79880,-19.875,-4.25,-40.25,0
79900,-18.625,-2,-42,0
79920,-17.6875,-3.125,-39.75,0
79940,-16.75,-3.5625,-39.5625,0
79960,-16.3125,-3.75,-37.5625,0
79980,-19.375,-3.25,-34.9375,0
80000,-19.375,-1.3125,-34.8125,0
80020,-15.5,0.75,-33.5,0
80040,-16.4375,1.75,-30.3125,0
80060,-17.4375,3.875,-29.75,0
80080,-16.875,8.25,-31.1875,0
80100,-15.1875,10.375,-32.4375,0
80120,-14.25,11,-32.0625,0
80140,-15.0625,12.75,-30.4375,0
80160,-14.0625,15.9375,-31.9375,0
80180,-15.125,17.75,-32.625,0
80200,-15.4375,17.5625,-32.875,0
80220,-16.75,18.25,-32.4375,0
80240,-16,19.8125,-30,0
80260,-17.4375,20,-25.6875,0
80280,-18.75,20.875,-27.4375,0
80300,-23.9375,24.8125,-29.6875,0
80320,-27.875,26.625,-28.8125,0
80340,-26.3125,31.4375,-32.5,0
80360,-21.9375,40.375,-37.6875,0
80380,-20.0625,41.3125,-37.4375,0
80400,-17,36.6875,-35.625,0
80420,-15.1875,34.875,-34,0
80440,-15,34.25,-33.5625,0
80460,-20.75,31.6875,-28.3125,0
80480,-23.125,29.125,-23.9375,0
80500,-21.4375,30.4375,-21.375,0
80520,-24.8125,32.5625,-19.25,0
80540,-24.875,36.75,-20.3125,0
80560,-23.1875,41.5625,-22.125,0
80580,-27.125,44.6875,-21.6875,0
80600,-32.5625,43,-19.5625,0
80620,-30.6875,42.0625,-18.8125,0
80640,-24.8125,43.375,-17.75,0
80660,-23.75,42.9375,-15.375,0
80680,-30.5,40.1875,-10.1875,0
80700,-30.75,40.8125,-8.0625,0
80720,-31.125,42.4375,-8.0625,0
80740,-35.5625,42.875,-9,0
80760,-35.8125,40.75,-10.0625,0
80780,-31.5625,36.75,-4.375,0
80800,-30.9375,34.875,4.125,0
80820,-29.5625,36.5,3.5625,0
80840,-34.875,34.5625,3.625,0
80860,-35.5,32.4375,5.3125,0
80880,-34.1875,32.5625,5.3125,0
80900,-36.5,33.375,5.75,0
80920,-34.8125,31.625,7.625,0
80940,-32.1875,27.0625,10.6875,0
80960,-32.1875,25,12.9375,0
80980,-34,25.5625,11.875,0
81000,-32.1875,27.3125,10.75,0
81020,-29.5625,27.625,12.5625,0
81040,-25.8125,25.375,12.4375,0
81060,-25.5625,24.3125,11.5,0
81080,-29.5625,24.6875,10.75,0
81100,-32.125,24.1875,12.3125,0
81120,-33.6875,22.5,14.25,0
81140,-32.5625,20.875,16.8125,0
81150,-34.0625,18.8125,19.4375,0
81170,-35.5,16,20.5625,0
81190,-31.125,12,21.0625,0
81210,-30.875,6.6875,26.5,0
81230,-33.4375,3.625,28.1875,0
81250,-33.625,0.875,27.8125,0
81270,-30.6875,-1.875,28.125,0
81290,-26.0625,-5.8125,31.3125,0
81310,-20.75,-6.4375,32.875,0
81330,-20.5625,-6.75,31.6875,0
81350,-21.3125,-8.375,29.375,0
81370,-19.25,-9.125,29.5,0
81390,-18,-8.5,30.875,0
81410,-19.0625,-7.1875,32.75,0
81430,-21.4375,-7.0625,33.0625,0
81450,-18.625,-8.8125,31.125,0
81470,-11.375,-9.6875,29.75,0
81490,-10,-7.8125,31.5625,0
81510,-14.5625,-7.0625,32.5625,0
81530,-17.3125,-8.125,28.3125,0
81550,-14.875,-8.75,27.3125,0
81570,-8.75,-8.5,26.875,0
81590,-2.375,-10.6875,24.875,0
81610,4.8125,-13.75,23.6875,0
81630,8.125,-14.9375,26.1875,0
81650,4,-17.9375,26.25,0
81670,-0.9375,-21.3125,26.5625,0
81690,-2.5,-27.0625,26.5,0
81710,1,-31.625,29.875,0
81730,3.375,-33.9375,32.125,0
81750,1,-37.5,31.8125,0
81770,1.5,-41.8125,30.1875,0
81790,4.8125,-44.8125,31.3125,0
81810,5.375,-47.5,33.4375,0
81830,4.75,-50,31.8125,0
81850,7.6875,-54.3125,32,0
81870,16.9375,-59.0625,33.625,0
81890,21.8125,-62.375,34.5,0
81910,23.5625,-66.125,33.0625,0
81930,20.25,-70.1875,27.3125,0
81950,22.1875,-71.75,19.75,0
81970,31,-74,14.625,0
81990,41.25,-73.125,15.125,0
82010,42.8125,-69.4375,11.5,0
82030,41.9375,-67.375,4.5,0
82050,36.6875,-68.0625,5.75,0
82070,25.75,-66.875,8.75,0
82090,21.125,-63.625,5.875,0
82110,25.125,-61,2.0625,0
82130,30.0625,-60.875,-0.1875,0
82150,29.0625,-61.75,1.625,0
82170,28.1875,-61.1875,-3.1875,0
82190,28.625,-59.5,-9.3125,0
82210,28.4375,-57.125,-10.125,0
82230,25.0625,-54.375,-7.9375,0
82250,22.875,-52.625,-8.9375,0
82270,23.25,-53.1875,-12.8125,0
82290,22.8125,-51.5,-8.3125,0
82310,17.5625,-46.5625,-4.3125,0
82330,14.0625,-42.8125,-3.8125,0
82350,12.0625,-43.3125,-6.875,0
82370,11.125,-43.5625,-7.6875,0
82390,7.1875,-42.625,-10,0
