Timestamp, Angle x, Angle y, Angle z, Marker
50,-2.10365,-1.12463,-1.79842,0
70,-2.1042,-1.12179,-1.79894,0
90,-2.10321,-1.11798,-1.80047,0
110,-2.10276,-1.11418,-1.80204,0
120,-2.10612,-1.11081,-1.80233,0
120,-2.11485,-1.10925,-1.79764,0
160,-2.12193,-1.10724,-1.792,0
180,-2.1265,-1.10565,-1.78775,0
200,-2.13349,-1.10678,-1.78051,0
220,-2.13845,-1.10804,-1.77531,0
240,-2.13983,-1.10813,-1.7736,0
260,-2.1378,-1.10689,-1.77526,0
280,-2.13473,-1.10405,-1.77887,0
300,-2.13047,-1.1006,-1.78465,0
320,-2.12654,-1.09814,-1.79111,0
340,-2.12388,-1.09772,-1.79794,0
360,-2.11559,-1.09993,-1.80944,0
380,-2.10265,-1.10322,-1.82553,0
400,-2.08828,-1.10772,-1.84385,0
420,-2.07185,-1.11368,-1.86189,0
440,-2.05407,-1.12368,-1.87933,0
460,-2.03603,-1.13476,-1.89576,0
480,-2.01974,-1.14522,-1.90762,0
500,-2.0089,-1.15338,-1.91507,0
520,-2.00273,-1.16029,-1.91967,0
540,-1.99938,-1.16481,-1.92224,0
560,-1.99849,-1.16742,-1.92263,0
580,-2.00001,-1.16859,-1.91913,0
600,-2.00316,-1.16784,-1.91425,0
620,-2.01636,-1.1664,-1.90235,0
640,-2.02759,-1.1656,-1.88924,0
660,-2.02527,-1.16259,-1.8876,0
680,-2.02732,-1.16212,-1.88337,0
700,-2.03383,-1.16458,-1.87742,0
720,-2.03616,-1.16622,-1.87573,0
740,-2.03723,-1.16847,-1.87194,0
760,-2.04357,-1.17014,-1.86537,0
780,-2.05072,-1.16699,-1.85925,0
800,-2.05172,-1.16365,-1.85587,0
820,-2.05181,-1.15952,-1.85187,0
840,-2.04957,-1.15473,-1.85281,0
860,-2.04754,-1.14967,-1.8555,0
880,-2.03919,-1.14635,-1.86187,0
900,-2.03278,-1.14224,-1.86612,0
920,-2.02765,-1.13759,-1.87033,0
940,-2.02523,-1.13233,-1.87421,0
960,-2.02258,-1.12544,-1.87821,0
980,-2.0188,-1.1184,-1.88208,0
1000,-2.01629,-1.11473,-1.88483,0
1020,-2.01068,-1.11129,-1.89116,0
1040,-2.00248,-1.10679,-1.89954,0
1060,-1.99885,-1.10385,-1.90143,0
1080,-2.00043,-1.09953,-1.89942,0
1100,-1.99869,-1.0945,-1.90054,0
1120,-1.99194,-1.0891,-1.90578,0
1140,-1.98128,-1.08271,-1.91587,0
1160,-1.97098,-1.07526,-1.92593,0
1180,-1.96426,-1.06671,-1.93207,0
1200,-1.95763,-1.05989,-1.93645,0
1220,-1.95417,-1.05264,-1.93934,0
1240,-1.94789,-1.0438,-1.94524,0
1260,-1.9421,-1.03752,-1.94833,0
1280,-1.93914,-1.03207,-1.94628,0
1300,-1.93075,-1.0266,-1.9513,0
1320,-1.91798,-1.02146,-1.95777,0
1340,-1.91429,-1.02108,-1.95437,0
1360,-1.92035,-1.02418,-1.94499,0
1380,-1.92343,-1.02537,-1.94202,0
1390,-1.91822,-1.02512,-1.94513,0
1410,-1.91419,-1.02793,-1.94477,0
1430,-1.91618,-1.03134,-1.94145,0
1450,-1.91871,-1.03362,-1.94018,0
1470,-1.91261,-1.034,-1.94647,0
1490,-1.90639,-1.03279,-1.95057,0
1510,-1.90421,-1.03299,-1.95069,0
1530,-1.90523,-1.03328,-1.94782,0
1550,-1.90923,-1.03257,-1.94268,0
1570,-1.91263,-1.02984,-1.93623,0
1590,-1.91348,-1.02714,-1.93116,0
1610,-1.90865,-1.02635,-1.93048,0
1630,-1.90108,-1.02605,-1.93124,0
1650,-1.89981,-1.02695,-1.92875,0
1670,-1.90178,-1.02871,-1.92338,0
1690,-1.90037,-1.03282,-1.92051,0
1710,-1.89369,-1.03661,-1.92084,0
1730,-1.89093,-1.04004,-1.91826,0
1750,-1.89141,-1.04242,-1.91621,0
1770,-1.88599,-1.04347,-1.91979,0
1790,-1.87432,-1.04539,-1.92818,0
1810,-1.86022,-1.04619,-1.93949,0
1830,-1.84655,-1.04625,-1.95213,0
1850,-1.83429,-1.04869,-1.96285,0
1870,-1.82292,-1.05274,-1.97137,0
1880,-1.81274,-1.05765,-1.97861,0
1900,-1.80312,-1.06182,-1.98619,0
1920,-1.79185,-1.06586,-1.99576,0
1940,-1.77855,-1.0703,-2.0056,0
1960,-1.76698,-1.07351,-2.01397,0
1980,-1.7597,-1.0751,-2.02126,0
2000,-1.75484,-1.07902,-2.02677,0
2020,-1.7498,-1.08297,-2.03279,0
2040,-1.74552,-1.08619,-2.03767,0
2060,-1.74383,-1.08878,-2.04191,0
2080,-1.74257,-1.09211,-2.04563,0
2100,-1.73836,-1.09479,-2.0509,0
2120,-1.7333,-1.0954,-2.05777,0
2140,-1.72784,-1.09553,-2.06502,0
2160,-1.7228,-1.09596,-2.0716,0
2180,-1.71581,-1.0968,-2.07888,0
2200,-1.70965,-1.09808,-2.08457,0
2220,-1.70571,-1.1018,-2.08784,0
2240,-1.70219,-1.10578,-2.09089,0
2260,-1.69778,-1.10804,-2.09577,0
2280,-1.69542,-1.11003,-2.10054,0
2300,-1.69546,-1.11179,-2.10395,0
2320,-1.69413,-1.11318,-2.10671,0
2340,-1.69218,-1.11475,-2.10979,0
2360,-1.69144,-1.11713,-2.11241,0
2380,-1.69277,-1.11939,-2.11321,0
2400,-1.69549,-1.12181,-2.11264,0
2420,-1.69832,-1.12414,-2.11217,0
2440,-1.70067,-1.12524,-2.11281,0
2460,-1.70441,-1.12599,-2.1131,0
2480,-1.7073,-1.12647,-2.1141,0
2500,-1.71016,-1.12562,-2.1154,0
2520,-1.71625,-1.12353,-2.11555,0
2540,-1.72837,-1.11981,-2.11135,0
2560,-1.74614,-1.11503,-2.10197,0
2580,-1.76687,-1.11141,-2.08819,0
2600,-1.78765,-1.10945,-2.07102,0
2620,-1.81,-1.10869,-2.0504,0
2640,-1.83252,-1.1086,-2.02995,0
2660,-1.85344,-1.10854,-2.01156,0
2680,-1.87297,-1.10959,-1.99541,0
2700,-1.89196,-1.11179,-1.97925,0
2720,-1.90946,-1.11348,-1.96432,0
2740,-1.92345,-1.11535,-1.95481,0
2760,-1.93419,-1.1164,-1.94876,0
2780,-1.94157,-1.11763,-1.94695,0
2800,-1.94517,-1.11851,-1.94863,0
2820,-1.94624,-1.12017,-1.95281,0
2840,-1.94478,-1.12263,-1.95993,0
2860,-1.94095,-1.12562,-1.9695,0
2880,-1.93455,-1.12841,-1.9806,0
2900,-1.92672,-1.13148,-1.99252,0
2920,-1.91945,-1.13441,-2.00483,0
2940,-1.91302,-1.13602,-2.01514,0
2960,-1.90727,-1.13677,-2.02326,0
2980,-1.90488,-1.13739,-2.02828,0
3000,-1.90526,-1.13772,-2.03036,0
3020,-1.90677,-1.13795,-2.03115,0
3040,-1.90754,-1.13839,-2.03241,0
3060,-1.90633,-1.13901,-2.03497,0
3080,-1.90455,-1.13962,-2.03748,0
3100,-1.90269,-1.14127,-2.04095,0
3120,-1.89948,-1.14366,-2.04547,0
3140,-1.89523,-1.14685,-2.05014,0
3160,-1.88862,-1.15125,-2.05678,0
3180,-1.87861,-1.15764,-2.06665,0
3200,-1.86436,-1.16589,-2.08086,0
3220,-1.84494,-1.17664,-2.1018,0
3240,-1.81683,-1.18987,-2.13013,0
3260,-1.77599,-1.20413,-2.16953,0
3280,-1.72258,-1.2193,-2.22276,0
3300,-1.64934,-1.23563,-2.29583,0
3320,-1.54942,-1.25017,-2.39377,0
3340,-1.42138,-1.26057,-2.51871,0
3360,-1.27589,-1.26299,-2.65964,0
3380,-1.12583,-1.25819,-2.80509,0
3400,-0.976213,-1.2446,-2.94957,0
3420,-0.840284,-1.22266,-3.08043,0
3440,-0.717465,-1.19345,3.08587,0
3460,-0.613703,-1.15868,2.98765,0
3480,-0.528634,-1.11994,2.90671,0
3500,-0.464079,-1.07695,2.84537,0
3520,-0.419836,-1.03109,2.80551,0
3540,-0.388251,-0.985413,2.78136,0
3560,-0.36286,-0.942027,2.76493,0
3580,-0.343426,-0.900507,2.75445,0
3600,-0.330301,-0.859948,2.74943,0
3620,-0.322777,-0.819403,2.75169,0
3640,-0.317615,-0.779587,2.76002,0
3660,-0.311504,-0.738485,2.76984,0
3680,-0.30439,-0.699333,2.7805,0
3700,-0.297529,-0.659438,2.792,0
3720,-0.295775,-0.617322,2.81002,0
3740,-0.298124,-0.574603,2.83223,0
3760,-0.299876,-0.531474,2.85389,0
3780,-0.299867,-0.487359,2.87469,0
3800,-0.300625,-0.441226,2.89738,0
3820,-0.302781,-0.392989,2.92225,0
3840,-0.303212,-0.344353,2.94774,0
3850,-0.300802,-0.294708,2.97025,0
3870,-0.296538,-0.24355,2.9885,0
3890,-0.294321,-0.190096,3.00791,0
3910,-0.296918,-0.136642,3.02946,0
3930,-0.300912,-0.0861517,3.04635,0
3950,-0.304084,-0.0354348,3.0572,0
3970,-0.308361,0.0170003,3.06567,0
3990,-0.31244,0.0715861,3.07552,0
4010,-0.32065,0.12189,3.08159,0
4030,-0.329736,0.165825,3.07954,0
4050,-0.33045,0.205603,3.07634,0
4070,-0.327336,0.245238,3.07371,0
4090,-0.323066,0.264091,3.06786,0
4110,-0.311108,0.264882,3.06106,0
4130,-0.289144,0.258069,3.05468,0
4150,-0.262387,0.252283,3.04482,0
4170,-0.240643,0.247044,3.032,0
4190,-0.231102,0.238006,3.01726,0
4210,-0.230246,0.223286,3.00581,0
4210,-0.232045,0.20519,2.99546,0
4230,-0.231444,0.187944,2.98356,0
4260,-0.219964,0.158593,2.96507,0
4280,-0.214479,0.145848,2.95825,0
4300,-0.20803,0.134347,2.95018,0
4320,-0.203872,0.126254,2.9432,0
4340,-0.198012,0.118825,2.93984,0
4360,-0.190933,0.10915,2.93601,0
4380,-0.183316,0.0924388,2.92974,0
4400,-0.170598,0.0680937,2.92536,0
4420,-0.155835,0.0371586,2.92581,0
4440,-0.14447,-0.00597154,2.92889,0
4460,-0.135662,-0.0575609,2.9273,0
4480,-0.128905,-0.11519,2.92529,0
4500,-0.123576,-0.17601,2.92685,0
4520,-0.119454,-0.242926,2.93496,0
4540,-0.122771,-0.318502,2.95073,0
4560,-0.133387,-0.396776,2.97234,0
4580,-0.151014,-0.47333,3.00132,0
4600,-0.17408,-0.545388,3.03403,0
4620,-0.203046,-0.611222,3.07046,0
4640,-0.23473,-0.671919,3.10467,0
4660,-0.266128,-0.724553,3.1373,0
4680,-0.293371,-0.768142,-3.12011,0
4700,-0.316232,-0.804182,-3.10282,0
4720,-0.338236,-0.832266,-3.09478,0
4740,-0.354245,-0.852316,-3.09714,0
4760,-0.371374,-0.868632,-3.10066,0
4780,-0.386052,-0.886689,-3.10688,0
4800,-0.396016,-0.903689,-3.11605,0
4820,-0.410868,-0.916862,-3.11959,0
4840,-0.430476,-0.925361,-3.11627,0
4860,-0.448125,-0.932595,-3.11245,0
4880,-0.463017,-0.935476,-3.109,0
4900,-0.48022,-0.933859,-3.10039,0
4920,-0.494162,-0.92714,-3.09056,0
4940,-0.499762,-0.91749,-3.08648,0
4960,-0.500963,-0.90553,-3.08524,0
4980,-0.500396,-0.890099,-3.08503,0
5000,-0.493638,-0.873403,-3.08852,0
5020,-0.48234,-0.857224,-3.09428,0
5040,-0.468693,-0.845593,-3.10157,0
5060,-0.45511,-0.840274,-3.1083,0
5080,-0.449028,-0.839115,-3.10991,0
5100,-0.444946,-0.840982,-3.10489,0
5120,-0.442969,-0.846606,-3.09475,0
5140,-0.44289,-0.856452,-3.08274,0
5160,-0.444155,-0.866534,-3.07019,0
5180,-0.446195,-0.875808,-3.05451,0
5200,-0.446956,-0.884033,-3.03885,0
5220,-0.4466,-0.890733,-3.02587,0
5240,-0.446322,-0.894869,-3.01491,0
5260,-0.445739,-0.89597,-3.0046,0
5280,-0.445176,-0.895057,-2.99479,0
5300,-0.43975,-0.892891,-2.99018,0
5320,-0.435123,-0.889479,-2.98767,0
5340,-0.433144,-0.885471,-2.98314,0
5360,-0.431498,-0.880914,-2.9758,0
5380,-0.422879,-0.875434,-2.97421,0
5400,-0.410325,-0.868817,-2.97757,0
5420,-0.401507,-0.863962,-2.97971,0
5440,-0.398609,-0.860508,-2.97824,0
5470,-0.395085,-0.855557,-2.97286,0
5490,-0.393014,-0.852318,-2.96997,0
5510,-0.389913,-0.850175,-2.96856,0
5530,-0.389504,-0.84741,-2.96517,0
5550,-0.38934,-0.843005,-2.96003,0
5570,-0.387671,-0.838657,-2.9567,0
5590,-0.385708,-0.834883,-2.95538,0
5610,-0.382845,-0.830449,-2.9563,0
5630,-0.379686,-0.82672,-2.9606,0
5650,-0.375364,-0.823166,-2.96829,0
5670,-0.368691,-0.81928,-2.98028,0
5690,-0.357551,-0.816202,-2.99909,0
5710,-0.340559,-0.81506,-3.02589,0
5730,-0.322392,-0.814622,-3.05591,0
5750,-0.30231,-0.815815,-3.09268,0
5770,-0.280481,-0.820243,-3.1359,0
5790,-0.263341,-0.828151,3.10209,0
5810,-0.252207,-0.837785,3.05866,0
5830,-0.242468,-0.851936,3.01526,0
5850,-0.234267,-0.873249,2.97221,0
5870,-0.233379,-0.900017,2.93626,0
5890,-0.239272,-0.932285,2.91025,0
5910,-0.250792,-0.970599,2.89127,0
5930,-0.271699,-1.01068,2.88133,0
5950,-0.298472,-1.05167,2.88041,0
5970,-0.336375,-1.09046,2.89412,0
5990,-0.389672,-1.12484,2.927,0
6010,-0.456496,-1.15574,2.97688,0
6030,-0.534132,-1.18126,3.03991,0
6050,-0.624114,-1.19914,3.11472,0
6070,-0.723605,-1.20748,-3.08354,0
6090,-0.820825,-1.20645,-2.99802,0
6110,-0.902945,-1.19912,-2.9256,0
6130,-0.968875,-1.19007,-2.86847,0
6150,-1.02465,-1.17932,-2.82255,0
6170,-1.07471,-1.16548,-2.78277,0
6170,-1.14524,-1.13864,-2.72601,0
6190,-1.1902,-1.11767,-2.68711,0
6210,-1.21693,-1.11465,-2.66325,0
6230,-1.24853,-1.11334,-2.63739,0
6250,-1.2726,-1.11136,-2.61614,0
6270,-1.29302,-1.1033,-2.59475,0
6290,-1.3135,-1.09826,-2.57455,0
6310,-1.33142,-1.09506,-2.55855,0
6330,-1.33612,-1.08914,-2.55604,0
6350,-1.33771,-1.08113,-2.55615,0
6370,-1.3406,-1.07303,-2.55665,0
6390,-1.34785,-1.06959,-2.55356,0
6410,-1.35788,-1.06726,-2.5485,0
6430,-1.36608,-1.0647,-2.54526,0
6450,-1.3792,-1.06199,-2.53566,0
6470,-1.38663,-1.06847,-2.53383,0
6490,-1.39326,-1.07505,-2.53125,0
6510,-1.39856,-1.0763,-2.52776,0
6530,-1.40371,-1.07501,-2.52469,0
6550,-1.41381,-1.07703,-2.51924,0
6570,-1.43017,-1.08012,-2.50839,0
6590,-1.44697,-1.08283,-2.49715,0
6610,-1.46394,-1.08605,-2.48609,0
6630,-1.4832,-1.09221,-2.47359,0
6650,-1.50364,-1.09999,-2.45963,0
6670,-1.5247,-1.10726,-2.44431,0
6690,-1.54761,-1.11517,-2.42693,0
6710,-1.57294,-1.12314,-2.40822,0
6730,-1.59985,-1.12986,-2.38935,0
6750,-1.62651,-1.13481,-2.37022,0
6770,-1.65325,-1.13925,-2.34975,0
6790,-1.67846,-1.144,-2.32998,0
6810,-1.69945,-1.14729,-2.31466,0
6830,-1.71615,-1.14971,-2.30322,0
6850,-1.73227,-1.1522,-2.29062,0
6870,-1.74921,-1.15499,-2.27812,0
6890,-1.76473,-1.15654,-2.26714,0
6910,-1.77924,-1.15676,-2.25732,0
6930,-1.79272,-1.15604,-2.24741,0
6950,-1.80311,-1.15667,-2.23961,0
6970,-1.81203,-1.15612,-2.23333,0
6990,-1.8187,-1.15553,-2.22881,0
7010,-1.82008,-1.1532,-2.22962,0
7030,-1.81969,-1.14978,-2.23047,0
7050,-1.82388,-1.14942,-2.22631,0
7070,-1.82534,-1.15099,-2.22494,0
7090,-1.82088,-1.15146,-2.22864,0
7110,-1.81404,-1.14909,-2.23376,0
7120,-1.8081,-1.14696,-2.23833,0
7140,-1.80533,-1.14686,-2.24075,0
7160,-1.80482,-1.14509,-2.24038,0
7180,-1.80534,-1.14414,-2.23961,0
7200,-1.80943,-1.14409,-2.23304,0
7220,-1.81227,-1.14514,-2.22659,0
7240,-1.81686,-1.14827,-2.21973,0
7260,-1.82358,-1.15208,-2.21195,0
7280,-1.83294,-1.15651,-2.20157,0
7300,-1.84307,-1.16226,-2.19097,0
7320,-1.8504,-1.16685,-2.18392,0
7340,-1.85247,-1.16947,-2.18168,0
7360,-1.85264,-1.1717,-2.18183,0
7380,-1.85023,-1.17314,-2.18399,0
7400,-1.84812,-1.1725,-2.18592,0
7420,-1.8459,-1.17061,-2.18738,0
7440,-1.84463,-1.16893,-2.18726,0
7460,-1.84662,-1.16683,-2.18605,0
7480,-1.84965,-1.16303,-2.18482,0
7500,-1.85213,-1.15847,-2.18398,0
7520,-1.85155,-1.15321,-2.18263,0
7540,-1.85102,-1.14872,-2.1797,0
7560,-1.85302,-1.14508,-2.1756,0
7580,-1.85522,-1.14266,-2.1707,0
7600,-1.85582,-1.14076,-2.16584,0
7620,-1.85347,-1.13721,-2.16347,0
7640,-1.84864,-1.13303,-2.16458,0
7660,-1.84424,-1.12931,-2.16541,0
7680,-1.83855,-1.12634,-2.16643,0
7700,-1.83135,-1.12328,-2.16846,0
7720,-1.82249,-1.12065,-2.17245,0
7740,-1.81373,-1.11908,-2.17429,0
7760,-1.80533,-1.11812,-2.17495,0
7780,-1.79838,-1.1193,-2.17473,0
7800,-1.79074,-1.12496,-2.17438,0
7820,-1.77973,-1.13257,-2.17565,0
7840,-1.77232,-1.14006,-2.17281,0
7860,-1.77183,-1.14673,-2.16455,0
7880,-1.77303,-1.15141,-2.15783,0
7900,-1.76991,-1.1548,-2.15528,0
7920,-1.76626,-1.15793,-2.15381,0
7940,-1.76328,-1.16046,-2.15424,0
7960,-1.75991,-1.16182,-2.15663,0
7980,-1.75802,-1.16326,-2.15876,0
8000,-1.75763,-1.16581,-2.16001,0
8020,-1.75518,-1.16771,-2.16259,0
8040,-1.75291,-1.16842,-2.16501,0
8060,-1.75314,-1.16944,-2.1661,0
8080,-1.75434,-1.17054,-2.16486,0
8100,-1.75181,-1.16992,-2.16688,0
8120,-1.74741,-1.1672,-2.1703,0
8140,-1.74492,-1.16383,-2.17302,0
8160,-1.74101,-1.15937,-2.17603,0
8180,-1.73418,-1.15413,-2.18112,0
8200,-1.72692,-1.14813,-2.18716,0
8220,-1.71534,-1.14187,-2.19688,0
8240,-1.70084,-1.13384,-2.20886,0
8260,-1.68651,-1.12497,-2.21845,0
8280,-1.67303,-1.11613,-2.22943,0
8300,-1.65898,-1.10824,-2.24031,0
8320,-1.64746,-1.10275,-2.24861,0
8340,-1.63615,-1.09689,-2.25864,0
8360,-1.62667,-1.09327,-2.26751,0
8380,-1.6194,-1.08881,-2.27291,0
8400,-1.60997,-1.08626,-2.28022,0
8420,-1.59915,-1.08404,-2.28879,0
8440,-1.58809,-1.08065,-2.2981,0
8460,-1.57654,-1.07741,-2.30686,0
8480,-1.56659,-1.07423,-2.31472,0
8500,-1.55375,-1.07377,-2.32693,0
8520,-1.53868,-1.0722,-2.33916,0
8540,-1.52531,-1.0703,-2.34891,0
8560,-1.51412,-1.06848,-2.35676,0
8580,-1.50749,-1.06541,-2.36236,0
8600,-1.50309,-1.06325,-2.36597,0
8620,-1.4995,-1.06371,-2.36908,0
8640,-1.49661,-1.06414,-2.37218,0
8660,-1.4943,-1.06367,-2.37435,0
8680,-1.4917,-1.06323,-2.37581,0
8700,-1.48864,-1.06316,-2.37581,0
8720,-1.48651,-1.06359,-2.37458,0
8740,-1.48691,-1.06478,-2.3706,0
8760,-1.48364,-1.0644,-2.37058,0
8780,-1.47859,-1.0624,-2.37414,0
8800,-1.4747,-1.05901,-2.3755,0
8820,-1.47122,-1.05384,-2.3753,0
8840,-1.46316,-1.05111,-2.38221,0
8860,-1.43943,-1.04674,-2.40209,0
8880,-1.42012,-1.04134,-2.41517,0
8900,-1.41265,-1.03896,-2.41865,0
8920,-1.41076,-1.03779,-2.42087,0
8940,-1.41119,-1.03731,-2.42244,0
8960,-1.41356,-1.03705,-2.4217,0
8980,-1.41759,-1.03851,-2.4188,0
9000,-1.42334,-1.03948,-2.41498,0
9020,-1.42919,-1.04135,-2.41201,0
9040,-1.4362,-1.0468,-2.40766,0
9060,-1.44481,-1.05257,-2.40211,0
9070,-1.45326,-1.05833,-2.39702,0
9090,-1.46093,-1.06487,-2.39288,0
9110,-1.4676,-1.07184,-2.3895,0
9130,-1.47244,-1.07972,-2.388,0
9150,-1.47422,-1.08706,-2.38805,0
9170,-1.47518,-1.09271,-2.38864,0
9190,-1.47404,-1.09562,-2.39072,0
9210,-1.47328,-1.09795,-2.39335,0
9230,-1.47311,-1.09946,-2.39547,0
9250,-1.47379,-1.10083,-2.39717,0
9270,-1.47623,-1.10162,-2.39756,0
9290,-1.47892,-1.10086,-2.39597,0
9310,-1.47738,-1.09882,-2.39678,0
9330,-1.4675,-1.0995,-2.40289,0
9350,-1.45791,-1.10167,-2.40555,0
9370,-1.44978,-1.10444,-2.40775,0
9390,-1.43738,-1.10569,-2.41401,0
9410,-1.41801,-1.10377,-2.42632,0
9430,-1.39826,-1.10073,-2.44114,0
9450,-1.38106,-1.09684,-2.45403,0
9470,-1.36691,-1.09342,-2.46576,0
9490,-1.35079,-1.08762,-2.4804,0
9510,-1.33728,-1.08198,-2.49287,0
9530,-1.32622,-1.07811,-2.50197,0
9550,-1.31934,-1.07518,-2.50774,0
9570,-1.31614,-1.07316,-2.51144,0
9590,-1.31168,-1.07293,-2.51572,0
9610,-1.30755,-1.07197,-2.51985,0
9630,-1.30374,-1.07106,-2.52394,0
9650,-1.29968,-1.07149,-2.53011,0
9670,-1.29446,-1.07139,-2.53769,0
9690,-1.29071,-1.07138,-2.54448,0
9710,-1.28711,-1.07126,-2.55072,0
9730,-1.28556,-1.0706,-2.55534,0
9750,-1.28256,-1.07144,-2.55932,0
9770,-1.27912,-1.07399,-2.56343,0
9790,-1.27785,-1.07697,-2.56475,0
9810,-1.2779,-1.07916,-2.56482,0
9830,-1.27963,-1.08118,-2.56387,0
9850,-1.2826,-1.08288,-2.56176,0
9870,-1.28633,-1.08488,-2.55892,0
9890,-1.28911,-1.08604,-2.55762,0
9910,-1.29007,-1.08591,-2.55813,0
9930,-1.29081,-1.08639,-2.55835,0
9950,-1.29197,-1.08757,-2.55852,0
9970,-1.29384,-1.08805,-2.55776,0
9990,-1.29746,-1.08804,-2.55416,0
10010,-1.29951,-1.09059,-2.55088,0
10030,-1.30075,-1.09421,-2.54979,0
10050,-1.30207,-1.09643,-2.54879,0
10070,-1.3042,-1.09799,-2.54858,0
10090,-1.30671,-1.09905,-2.54714,0
10110,-1.3094,-1.09913,-2.5455,0
10130,-1.31119,-1.09859,-2.54587,0
10150,-1.31719,-1.0988,-2.54058,0
10170,-1.32422,-1.09973,-2.53445,0
10190,-1.32363,-1.09718,-2.53741,0
10210,-1.32297,-1.09454,-2.53765,0
10230,-1.32393,-1.09281,-2.53357,0
10250,-1.32598,-1.09033,-2.52907,0
10270,-1.33038,-1.08938,-2.52302,0
10290,-1.33327,-1.08912,-2.5193,0
10310,-1.33911,-1.0896,-2.51459,0
10330,-1.34581,-1.09074,-2.50966,0
10350,-1.35178,-1.09293,-2.50506,0
10370,-1.35548,-1.09518,-2.50336,0
10390,-1.35802,-1.0969,-2.50252,0
10410,-1.36138,-1.09639,-2.50154,0
10430,-1.3617,-1.0928,-2.50318,0
10450,-1.37107,-1.09757,-2.49699,0
10470,-1.38098,-1.1074,-2.4907,0
10490,-1.38902,-1.11687,-2.48161,0
10510,-1.38322,-1.12241,-2.47968,0
10530,-1.38152,-1.12761,-2.47649,0
10550,-1.38209,-1.13359,-2.47422,0
10570,-1.38302,-1.13867,-2.47427,0
10590,-1.37911,-1.14096,-2.47916,0
10610,-1.37471,-1.14323,-2.48596,0
10630,-1.36857,-1.14584,-2.49208,0
10650,-1.36673,-1.14891,-2.49328,0
10670,-1.36772,-1.15289,-2.49284,0
10690,-1.36925,-1.15255,-2.49283,0
10710,-1.37486,-1.15078,-2.48822,0
10730,-1.38558,-1.15011,-2.47962,0
10750,-1.39869,-1.14863,-2.46886,0
10770,-1.40731,-1.14353,-2.4621,0
10790,-1.41533,-1.13607,-2.45615,0
10810,-1.42328,-1.13514,-2.45138,0
10830,-1.43045,-1.13422,-2.44676,0
10850,-1.4335,-1.13482,-2.44437,0
10870,-1.43313,-1.13568,-2.44524,0
10890,-1.4332,-1.13606,-2.44817,0
10910,-1.43677,-1.13356,-2.44623,0
10930,-1.44617,-1.12999,-2.43938,0
10950,-1.45424,-1.12716,-2.43701,0
10970,-1.46163,-1.12657,-2.43438,0
10990,-1.46718,-1.12805,-2.43289,0
11010,-1.46037,-1.12351,-2.44348,0
11030,-1.459,-1.11381,-2.44192,0
11050,-1.45464,-1.10377,-2.44092,0
11070,-1.45333,-1.09566,-2.43891,0
11090,-1.45258,-1.08715,-2.43674,0
11110,-1.45333,-1.08102,-2.43321,0
11130,-1.45554,-1.0759,-2.42915,0
11150,-1.46064,-1.07122,-2.42424,0
11170,-1.46448,-1.06597,-2.41983,0
11190,-1.46535,-1.06089,-2.41723,0
11210,-1.46393,-1.05653,-2.41663,0
11230,-1.46071,-1.05309,-2.41836,0
11250,-1.45399,-1.05073,-2.42413,0
11270,-1.4446,-1.04763,-2.43166,0
11290,-1.43457,-1.04352,-2.43895,0
11310,-1.42686,-1.04038,-2.44506,0
11330,-1.41906,-1.03692,-2.45156,0
11350,-1.4104,-1.03514,-2.45859,0
11370,-1.40307,-1.03341,-2.46387,0
11390,-1.39714,-1.03282,-2.46734,0
11410,-1.39268,-1.03156,-2.46898,0
11430,-1.38815,-1.03006,-2.47126,0
11450,-1.38341,-1.02817,-2.47453,0
11470,-1.37777,-1.02798,-2.4784,0
11490,-1.37348,-1.02749,-2.48132,0
11510,-1.36823,-1.02814,-2.48446,0
11530,-1.36152,-1.03014,-2.48843,0
11550,-1.35553,-1.03211,-2.49352,0
11570,-1.35144,-1.03413,-2.49555,0
11590,-1.34704,-1.03622,-2.49688,0
11610,-1.34324,-1.03713,-2.49737,0
11630,-1.33854,-1.03618,-2.49881,0
11650,-1.33453,-1.03557,-2.50003,0
11670,-1.33132,-1.03601,-2.5019,0
11690,-1.32919,-1.03504,-2.50284,0
11710,-1.32539,-1.0323,-2.50496,0
11730,-1.32087,-1.02818,-2.50868,0
11750,-1.31617,-1.02518,-2.51186,0
11770,-1.31189,-1.02208,-2.51538,0
11790,-1.3082,-1.01936,-2.51806,0
11810,-1.30352,-1.01866,-2.52296,0
11830,-1.30051,-1.01806,-2.52736,0
11850,-1.29817,-1.0179,-2.53104,0
11870,-1.29609,-1.01881,-2.53339,0
11890,-1.29441,-1.01868,-2.53541,0
11910,-1.29243,-1.01834,-2.53749,0
11930,-1.28836,-1.01831,-2.54136,0
11950,-1.28386,-1.0189,-2.54472,0
11970,-1.28054,-1.01995,-2.54694,0
11990,-1.27861,-1.02004,-2.54904,0
12010,-1.27684,-1.01923,-2.55133,0
12030,-1.27434,-1.01831,-2.55295,0
12050,-1.27176,-1.01811,-2.55408,0
12070,-1.26943,-1.01858,-2.55559,0
12090,-1.2666,-1.01884,-2.55782,0
12110,-1.26368,-1.01788,-2.55944,0
12130,-1.26152,-1.01778,-2.56005,0
12150,-1.25956,-1.01704,-2.55957,0
12170,-1.25588,-1.01647,-2.56067,0
12190,-1.25346,-1.01598,-2.56163,0
12210,-1.25029,-1.01617,-2.56286,0
12230,-1.24728,-1.01682,-2.56316,0
12250,-1.24525,-1.01635,-2.56246,0
12270,-1.24263,-1.01652,-2.56224,0
12290,-1.2397,-1.01674,-2.56282,0
12310,-1.23589,-1.01627,-2.56438,0
12330,-1.23142,-1.0158,-2.56707,0
12350,-1.22648,-1.01458,-2.56958,0
12370,-1.22269,-1.01308,-2.57174,0
12390,-1.21879,-1.0121,-2.57446,0
12410,-1.21494,-1.01044,-2.57767,0
12430,-1.21143,-1.00906,-2.57997,0
12450,-1.20577,-1.0079,-2.58399,0
12460,-1.20075,-1.00511,-2.58781,0
12480,-1.19673,-1.00416,-2.59088,0
12500,-1.19294,-1.00329,-2.59372,0
12520,-1.18976,-1.0016,-2.59606,0
12540,-1.18811,-0.999981,-2.59723,0
12560,-1.18808,-0.998675,-2.598,0
12580,-1.18715,-0.997551,-2.59956,0
12600,-1.18362,-0.995946,-2.60272,0
12620,-1.18055,-0.993943,-2.60512,0
12640,-1.17851,-0.993621,-2.60724,0
12660,-1.17525,-0.99433,-2.61069,0
12680,-1.17265,-0.996139,-2.6133,0
12700,-1.17126,-0.999795,-2.6139,0
12720,-1.17191,-1.00407,-2.61253,0
12750,-1.19903,-1.02877,-2.59751,0
12750,-1.21465,-1.04261,-2.59201,0
12770,-1.22241,-1.04853,-2.58907,0
12790,-1.23024,-1.05836,-2.58506,0
12820,-1.25498,-1.07661,-2.57105,0
12840,-1.26742,-1.08264,-2.56738,0
12860,-1.27534,-1.08938,-2.56614,0
12880,-1.27845,-1.09664,-2.56656,0
12900,-1.28162,-1.10513,-2.56811,0
12920,-1.28814,-1.11485,-2.5681,0
12940,-1.29471,-1.12244,-2.56893,0
12960,-1.29866,-1.13073,-2.57222,0
12980,-1.29878,-1.13714,-2.57681,0
13000,-1.30008,-1.14152,-2.57898,0
13020,-1.30385,-1.14645,-2.57907,0
13040,-1.30787,-1.14963,-2.57971,0
13060,-1.30767,-1.15228,-2.58239,0
13080,-1.30734,-1.15139,-2.58379,0
13100,-1.30678,-1.15193,-2.58646,0
13120,-1.30622,-1.15305,-2.5893,0
13140,-1.30738,-1.15344,-2.59112,0
13160,-1.3118,-1.15297,-2.59136,0
13180,-1.32065,-1.15259,-2.58945,0
13200,-1.32978,-1.15285,-2.58735,0
13220,-1.33927,-1.15321,-2.58491,0
13240,-1.34934,-1.15342,-2.58209,0
13260,-1.35927,-1.15213,-2.57837,0
13280,-1.36892,-1.15304,-2.57534,0
13300,-1.37717,-1.15482,-2.57232,0
13320,-1.38479,-1.15539,-2.57021,0
13340,-1.39302,-1.15344,-2.56842,0
13360,-1.40415,-1.15148,-2.56526,0
13380,-1.42604,-1.15229,-2.55324,0
13400,-1.45318,-1.1564,-2.53657,0
13420,-1.47458,-1.16777,-2.52217,0
13440,-1.49249,-1.17527,-2.50711,0
13460,-1.50178,-1.18151,-2.49719,0
13480,-1.50729,-1.18379,-2.49026,0
13500,-1.5144,-1.18436,-2.48016,0
13520,-1.52615,-1.18857,-2.4655,0
13540,-1.5431,-1.19157,-2.44815,0
13560,-1.55165,-1.19514,-2.43946,0
13580,-1.54772,-1.19499,-2.43846,0
13600,-1.53829,-1.1938,-2.44119,0
13620,-1.53296,-1.19652,-2.44307,0
13640,-1.52487,-1.19701,-2.44907,0
13660,-1.51409,-1.19775,-2.45704,0
13680,-1.50718,-1.20132,-2.46165,0
13700,-1.50144,-1.20676,-2.46675,0
13720,-1.49308,-1.21294,-2.47409,0
13740,-1.48871,-1.21881,-2.47638,0
13760,-1.48923,-1.22274,-2.47439,0
13780,-1.49521,-1.22405,-2.46849,0
13800,-1.50049,-1.22717,-2.46334,0
13820,-1.50441,-1.22998,-2.45816,0
13840,-1.50373,-1.22997,-2.45616,0
13860,-1.49857,-1.22911,-2.45883,0
13880,-1.49248,-1.23493,-2.46113,0
13900,-1.48964,-1.24244,-2.45739,0
13920,-1.48504,-1.24815,-2.45524,0
13940,-1.47989,-1.24624,-2.45799,0
13960,-1.47078,-1.24382,-2.46529,0
13980,-1.46231,-1.24143,-2.46985,0
14000,-1.45451,-1.23918,-2.47501,0
14020,-1.44827,-1.23288,-2.47863,0
14040,-1.44286,-1.22387,-2.48338,0
14060,-1.43604,-1.21539,-2.489,0
14080,-1.42769,-1.20766,-2.49453,0
14100,-1.42037,-1.20174,-2.49914,0
14120,-1.41229,-1.19619,-2.50501,0
14140,-1.40129,-1.19196,-2.5133,0
14160,-1.38975,-1.18719,-2.52138,0
14180,-1.37939,-1.18214,-2.52915,0
14200,-1.36938,-1.17549,-2.53738,0
14220,-1.36179,-1.16916,-2.54327,0
14240,-1.35302,-1.16376,-2.55049,0
14260,-1.34268,-1.16057,-2.5583,0
14280,-1.33261,-1.15831,-2.56466,0
14300,-1.32274,-1.15701,-2.56965,0
14320,-1.31404,-1.15662,-2.57391,0
14340,-1.30699,-1.1588,-2.57606,0
14350,-1.30067,-1.16232,-2.57698,0
14370,-1.29228,-1.1639,-2.57841,0
14390,-1.28791,-1.16562,-2.57652,0
14410,-1.286,-1.16798,-2.57265,0
14430,-1.28532,-1.17015,-2.56801,0
14450,-1.28616,-1.16848,-2.56165,0
14470,-1.27913,-1.16824,-2.56345,0
14490,-1.28202,-1.16294,-2.5566,0
14510,-1.27937,-1.15844,-2.55535,0
14530,-1.27625,-1.15731,-2.55639,0
14550,-1.27876,-1.16089,-2.54998,0
14570,-1.28562,-1.1645,-2.5386,0
14590,-1.29146,-1.16786,-2.52847,0
14610,-1.29628,-1.16981,-2.52175,0
14630,-1.2995,-1.17495,-2.51473,0
14650,-1.30743,-1.17917,-2.50642,0
14670,-1.31341,-1.18143,-2.50035,0
14690,-1.3209,-1.18161,-2.49384,0
14710,-1.3271,-1.17971,-2.48714,0
14730,-1.33136,-1.177,-2.48245,0
14750,-1.33386,-1.17501,-2.47902,0
14770,-1.34095,-1.17217,-2.47083,0
14790,-1.34684,-1.17253,-2.46284,0
14810,-1.35264,-1.17545,-2.45528,0
14830,-1.35653,-1.18029,-2.44861,0
14850,-1.36092,-1.18479,-2.44116,0
14870,-1.36244,-1.18763,-2.43784,0
14890,-1.36419,-1.1906,-2.43538,0
14910,-1.36835,-1.19324,-2.43128,0
14930,-1.37214,-1.19506,-2.42758,0
14950,-1.37516,-1.19418,-2.4246,0
14970,-1.37801,-1.19174,-2.42316,0
14990,-1.38304,-1.18984,-2.41971,0
15010,-1.38791,-1.18813,-2.41609,0
15030,-1.39184,-1.18629,-2.41306,0
15050,-1.395,-1.18507,-2.41082,0
15070,-1.39919,-1.18433,-2.40742,0
15090,-1.40359,-1.18398,-2.40386,0
15110,-1.40676,-1.18372,-2.40076,0
15130,-1.41068,-1.18279,-2.39766,0
15150,-1.41406,-1.18258,-2.39487,0
15170,-1.41776,-1.18138,-2.39144,0
15190,-1.42103,-1.18027,-2.38836,0
15210,-1.42439,-1.17847,-2.385,0
15230,-1.42688,-1.17675,-2.3824,0
15250,-1.42743,-1.1762,-2.38116,0
15270,-1.42741,-1.17616,-2.38001,0
15290,-1.42746,-1.17673,-2.37943,0
15310,-1.42816,-1.17791,-2.37724,0
15330,-1.42983,-1.18012,-2.37466,0
15350,-1.43066,-1.18349,-2.37268,0
15370,-1.4299,-1.18638,-2.37306,0
15390,-1.42809,-1.18735,-2.37528,0
15410,-1.4279,-1.18667,-2.37587,0
15430,-1.42812,-1.18448,-2.37644,0
15450,-1.42631,-1.18311,-2.38065,0
15470,-1.42457,-1.18243,-2.38336,0
15490,-1.42523,-1.18328,-2.38352,0
15510,-1.42412,-1.18348,-2.38558,0
15530,-1.42854,-1.18356,-2.38257,0
15550,-1.42994,-1.18438,-2.38117,0
15570,-1.4342,-1.18729,-2.37651,0
15590,-1.4383,-1.18876,-2.37139,0
15610,-1.44007,-1.19049,-2.3695,0
15630,-1.44288,-1.19262,-2.36753,0
15650,-1.44766,-1.19362,-2.36344,0
15670,-1.44859,-1.19273,-2.36196,0
15690,-1.45087,-1.19272,-2.36093,0
15710,-1.45679,-1.1939,-2.35693,0
15730,-1.46325,-1.19456,-2.35259,0
15750,-1.4679,-1.19486,-2.34937,0
15770,-1.47632,-1.19549,-2.34218,0
15790,-1.48418,-1.19688,-2.33505,0
15810,-1.49134,-1.19885,-2.32779,0
15830,-1.49923,-1.20145,-2.31884,0
15850,-1.50497,-1.20417,-2.31124,0
15870,-1.50778,-1.2071,-2.30667,0
15890,-1.50734,-1.21182,-2.30415,0
15910,-1.50692,-1.21402,-2.30184,0
15930,-1.50749,-1.21425,-2.29968,0
15950,-1.50927,-1.21322,-2.29902,0
15970,-1.50919,-1.21319,-2.30004,0
15990,-1.51095,-1.21363,-2.30078,0
16010,-1.51269,-1.21315,-2.30249,0
16030,-1.51342,-1.21201,-2.30561,0
16050,-1.51153,-1.21216,-2.3097,0
16070,-1.50967,-1.21263,-2.31443,0
16090,-1.51267,-1.21047,-2.31601,0
16110,-1.51346,-1.20858,-2.31872,0
16130,-1.51626,-1.20871,-2.31977,0
16150,-1.52163,-1.20891,-2.31819,0
16170,-1.53003,-1.20652,-2.31396,0
16190,-1.53731,-1.20364,-2.31218,0
16210,-1.54327,-1.20185,-2.31001,0
16230,-1.55027,-1.20127,-2.30733,0
16250,-1.56022,-1.1992,-2.30184,0
16270,-1.56556,-1.19695,-2.2991,0
16290,-1.5726,-1.19879,-2.29368,0
16310,-1.58333,-1.19928,-2.28517,0
16330,-1.58496,-1.19857,-2.28369,0
16350,-1.58999,-1.19681,-2.27884,0
16370,-1.59643,-1.1973,-2.27264,0
16390,-1.60664,-1.19986,-2.26391,0
16410,-1.60854,-1.20414,-2.26152,0
16430,-1.60765,-1.2086,-2.26208,0
16450,-1.60375,-1.21133,-2.26456,0
16470,-1.60312,-1.21183,-2.26351,0
16490,-1.60507,-1.21106,-2.26021,0
16510,-1.60697,-1.21137,-2.25815,0
16530,-1.61011,-1.213,-2.2552,0
16550,-1.61103,-1.21421,-2.25291,0
16570,-1.61088,-1.21351,-2.25199,0
16590,-1.61069,-1.21249,-2.25168,0
16610,-1.61169,-1.21237,-2.25128,0
16630,-1.61192,-1.2125,-2.2516,0
16650,-1.60959,-1.21125,-2.25344,0
16670,-1.60727,-1.20918,-2.25598,0
16690,-1.60275,-1.20757,-2.26067,0
16710,-1.59797,-1.20761,-2.2654,0
16730,-1.59363,-1.20626,-2.26946,0
16750,-1.58865,-1.20728,-2.27339,0
16770,-1.58713,-1.20864,-2.27364,0
16790,-1.58424,-1.20981,-2.27713,0
16810,-1.58101,-1.21169,-2.28126,0
16830,-1.57434,-1.2121,-2.28872,0
16850,-1.56827,-1.2118,-2.29455,0
16870,-1.56374,-1.21072,-2.29908,0
16890,-1.56241,-1.21023,-2.30165,0
16910,-1.56203,-1.21215,-2.30248,0
16930,-1.55841,-1.21451,-2.30502,0
16950,-1.5572,-1.21578,-2.30631,0
16970,-1.55612,-1.215,-2.30647,0
16990,-1.55484,-1.21515,-2.30595,0
17010,-1.55346,-1.21364,-2.3073,0
17030,-1.55067,-1.21412,-2.30776,0
17050,-1.55272,-1.21381,-2.30474,0
17070,-1.55078,-1.21424,-2.30522,0
17090,-1.55078,-1.21403,-2.30482,0
17110,-1.55001,-1.21445,-2.30451,0
17130,-1.54979,-1.21383,-2.30394,0
17150,-1.54715,-1.21312,-2.3056,0
17170,-1.54917,-1.21339,-2.30311,0
17190,-1.54907,-1.21394,-2.3023,0
17210,-1.54899,-1.21505,-2.3013,0
17230,-1.55023,-1.21371,-2.29901,0
17250,-1.55031,-1.21472,-2.29726,0
17270,-1.55426,-1.2145,-2.29189,0
17290,-1.55543,-1.21441,-2.28878,0
17310,-1.5566,-1.21424,-2.28545,0
17330,-1.55913,-1.21493,-2.28077,0
17350,-1.56389,-1.21599,-2.27434,0
17370,-1.56455,-1.21593,-2.27244,0
17390,-1.56454,-1.21506,-2.27004,0
17410,-1.56612,-1.21531,-2.26776,0
17430,-1.56896,-1.21525,-2.26599,0
17450,-1.56771,-1.2142,-2.2679,0
17470,-1.56561,-1.21303,-2.27043,0
17490,-1.56644,-1.21145,-2.2714,0
17510,-1.56715,-1.21076,-2.27142,0
17530,-1.56898,-1.21245,-2.2693,0
17550,-1.57173,-1.21515,-2.26649,0
17570,-1.57328,-1.2179,-2.2637,0
17590,-1.5735,-1.22095,-2.26257,0
17610,-1.57256,-1.22435,-2.26242,0
17630,-1.57041,-1.22626,-2.26446,0
17650,-1.56756,-1.22495,-2.26785,0
17670,-1.56478,-1.22248,-2.27169,0
17690,-1.56329,-1.2204,-2.274,0
17710,-1.56114,-1.21991,-2.27718,0
17720,-1.56404,-1.21917,-2.27853,0
17740,-1.5693,-1.21441,-2.27986,0
17760,-1.57264,-1.21141,-2.2804,0
17780,-1.5738,-1.20666,-2.28331,0
17800,-1.57511,-1.20408,-2.28577,0
17820,-1.57838,-1.20184,-2.28734,0
17840,-1.58249,-1.19985,-2.28848,0
17860,-1.57812,-1.19688,-2.29537,0
17880,-1.57909,-1.19542,-2.29639,0
17900,-1.57753,-1.1957,-2.29946,0
17920,-1.57822,-1.19734,-2.30049,0
17940,-1.57595,-1.19744,-2.30298,0
17960,-1.57396,-1.19827,-2.30454,0
17980,-1.57354,-1.19747,-2.30576,0
18000,-1.5741,-1.19782,-2.30532,0
18020,-1.57499,-1.19701,-2.30393,0
18040,-1.57513,-1.19544,-2.30197,0
18060,-1.57767,-1.1946,-2.29785,0
18080,-1.58394,-1.19401,-2.29146,0
18100,-1.58879,-1.19357,-2.28467,0
18120,-1.59466,-1.19241,-2.27742,0
18140,-1.59628,-1.19125,-2.27485,0
18160,-1.6022,-1.19047,-2.26727,0
18180,-1.60289,-1.18916,-2.26515,0
18200,-1.60645,-1.18847,-2.26136,0
18220,-1.60808,-1.18834,-2.2588,0
18240,-1.60946,-1.18885,-2.25759,0
18260,-1.60991,-1.18744,-2.25792,0
18280,-1.60968,-1.18515,-2.25863,0
18300,-1.6088,-1.18324,-2.25971,0
18320,-1.60977,-1.18129,-2.25982,0
18340,-1.61168,-1.17966,-2.25913,0
18360,-1.61082,-1.17871,-2.25912,0
18380,-1.61096,-1.1796,-2.2576,0
18400,-1.6146,-1.17958,-2.25322,0
18420,-1.61561,-1.17899,-2.25102,0
18440,-1.61638,-1.1782,-2.24983,0
18460,-1.61553,-1.17695,-2.25044,0
18480,-1.61218,-1.17189,-2.25598,0
18500,-1.60781,-1.16214,-2.26291,0
18520,-1.60683,-1.15212,-2.26838,0
18540,-1.60919,-1.14505,-2.27313,0
18560,-1.61161,-1.13807,-2.27687,0
18580,-1.61284,-1.13029,-2.28035,0
18600,-1.61314,-1.12414,-2.28315,0
18620,-1.61716,-1.11722,-2.28326,0
18640,-1.62187,-1.10863,-2.28256,0
18660,-1.62741,-1.1006,-2.27966,0
18680,-1.63522,-1.09466,-2.27517,0
18700,-1.64485,-1.08904,-2.26882,0
18720,-1.65404,-1.08124,-2.26456,0
18740,-1.6607,-1.07178,-2.26099,0
18760,-1.66655,-1.06164,-2.25781,0
18780,-1.67118,-1.0486,-2.25599,0
18800,-1.67875,-1.02831,-2.25145,0
18820,-1.67907,-1.01285,-2.24553,0
18840,-1.67131,-1.00811,-2.24649,0
18860,-1.67342,-1.00592,-2.24718,0
18880,-1.67922,-1.00631,-2.24971,0
18900,-1.68143,-1.00898,-2.25413,0
18920,-1.68307,-1.00885,-2.25785,0
18940,-1.68156,-1.00589,-2.26063,0
18960,-1.681,-1.00641,-2.26443,0
18980,-1.68244,-1.00659,-2.26789,0
19000,-1.68374,-1.00588,-2.26947,0
19020,-1.68435,-1.00523,-2.27056,0
19040,-1.68893,-1.0057,-2.26969,0
19060,-1.6916,-1.00641,-2.26982,0
19080,-1.69474,-1.00818,-2.26932,0
19100,-1.70098,-1.01115,-2.2654,0
19120,-1.70507,-1.01481,-2.26481,0
19140,-1.7043,-1.02105,-2.26542,0
19160,-1.70304,-1.02989,-2.26285,0
19180,-1.7048,-1.03971,-2.25727,0
19200,-1.70767,-1.05037,-2.25289,0
19220,-1.71051,-1.05726,-2.24831,0
19240,-1.71545,-1.06001,-2.24133,0
19260,-1.71982,-1.06212,-2.23586,0
19280,-1.72421,-1.06329,-2.23048,0
19300,-1.73007,-1.06328,-2.22315,0
19320,-1.73814,-1.06164,-2.21332,0
19340,-1.744,-1.05629,-2.2027,0
19360,-1.75454,-1.05225,-2.18841,0
19380,-1.77025,-1.05131,-2.17051,0
19400,-1.79081,-1.05181,-2.14727,0
19420,-1.80714,-1.05172,-2.12533,0
19440,-1.82756,-1.05215,-2.10285,0
19460,-1.85652,-1.05486,-2.07628,0
19480,-1.88351,-1.05796,-2.04847,0
19500,-1.90914,-1.05775,-2.02492,0
19520,-1.93984,-1.05137,-2.0051,0
19540,-1.96327,-1.0424,-1.99037,0
19560,-1.98227,-1.03088,-1.97644,0
19580,-2.00007,-1.02093,-1.96413,0
19600,-2.01279,-1.01245,-1.95577,0
19620,-2.02181,-1.0037,-1.9502,0
19640,-2.0287,-0.999342,-1.94599,0
19650,-2.03276,-0.997328,-1.9436,0
19680,-2.03521,-0.994951,-1.94183,0
19690,-2.03736,-0.992107,-1.93959,0
19710,-2.04112,-0.990936,-1.93534,0
19730,-2.044,-0.988275,-1.9315,0
19750,-2.04512,-0.984263,-1.92797,0
19770,-2.04625,-0.979093,-1.92477,0
19790,-2.04933,-0.97406,-1.92063,0
19810,-2.05123,-0.969987,-1.91576,0
19830,-2.05099,-0.964206,-1.91039,0
19850,-2.05165,-0.957818,-1.90618,0
19870,-2.05145,-0.953587,-1.90437,0
19890,-2.05187,-0.951055,-1.90138,0
19910,-2.05293,-0.948514,-1.89823,0
19930,-2.05266,-0.944219,-1.89647,0
19950,-2.05363,-0.941172,-1.89312,0
19970,-2.05527,-0.941202,-1.88722,0
19990,-2.05607,-0.943487,-1.88012,0
20010,-2.05474,-0.946413,-1.87486,0
20030,-2.05572,-0.949576,-1.86877,0
20050,-2.05715,-0.952755,-1.8621,0
20070,-2.05731,-0.955354,-1.85777,0
20090,-2.0555,-0.957148,-1.85653,0
20110,-2.0547,-0.959277,-1.85505,0
20130,-2.05423,-0.961438,-1.85271,0
20150,-2.05417,-0.963211,-1.85124,0
20170,-2.05423,-0.9643,-1.85063,0
20190,-2.05383,-0.965605,-1.85064,0
20210,-2.05496,-0.96714,-1.84897,0
20230,-2.05647,-0.969108,-1.84747,0
20250,-2.05755,-0.970289,-1.84761,0
20270,-2.05812,-0.972644,-1.8488,0
20290,-2.05809,-0.97609,-1.84944,0
20310,-2.05951,-0.979104,-1.84796,0
20330,-2.06031,-0.983321,-1.84787,0
20350,-2.05917,-0.987284,-1.85017,0
20370,-2.05625,-0.993093,-1.8522,0
20390,-2.05024,-1.0013,-1.85322,0
20410,-2.03533,-1.01075,-1.85955,0
20430,-2.0117,-1.0189,-1.87599,0
20450,-1.99098,-1.01694,-1.89621,0
20470,-1.97947,-1.01783,-1.9086,0
20490,-1.97008,-1.02107,-1.91887,0
20510,-1.95747,-1.0213,-1.93265,0
20530,-1.9497,-1.02059,-1.94398,0
20550,-1.94644,-1.01985,-1.95152,0
20570,-1.9452,-1.02101,-1.95602,0
20590,-1.93932,-1.02039,-1.96347,0
20610,-1.93448,-1.02337,-1.96545,0
20630,-1.93492,-1.02846,-1.96392,0
20650,-1.93879,-1.03245,-1.96119,0
20670,-1.94469,-1.03778,-1.95518,0
20690,-1.94744,-1.04267,-1.95373,0
20710,-1.95087,-1.0474,-1.95154,0
20730,-1.95708,-1.05143,-1.94733,0
20750,-1.96033,-1.05327,-1.94784,0
20770,-1.95857,-1.05738,-1.95415,0
20790,-1.94802,-1.06397,-1.9673,0
20810,-1.94225,-1.06773,-1.97348,0
20830,-1.94249,-1.06986,-1.97383,0
20850,-1.94273,-1.07042,-1.97376,0
20870,-1.93922,-1.07132,-1.97346,0
20890,-1.9361,-1.07299,-1.97115,0
20910,-1.93849,-1.07873,-1.96472,0
20930,-1.93375,-1.08697,-1.96547,0
20950,-1.9167,-1.09017,-1.97404,0
20970,-1.90497,-1.09389,-1.97663,0
20990,-1.90073,-1.10037,-1.9741,0
21010,-1.89589,-1.10472,-1.97331,0
21030,-1.89272,-1.10866,-1.97077,0
21050,-1.89186,-1.11111,-1.96616,0
21070,-1.89223,-1.11322,-1.96268,0
21090,-1.89363,-1.11398,-1.95922,0
21110,-1.89679,-1.11282,-1.95309,0
21130,-1.90155,-1.11174,-1.94481,0
21150,-1.90447,-1.11117,-1.93744,0
21170,-1.90516,-1.10945,-1.9316,0
21190,-1.90805,-1.10939,-1.9224,0
21210,-1.91217,-1.11005,-1.91141,0
21230,-1.91804,-1.11071,-1.89948,0
21250,-1.92469,-1.11187,-1.88788,0
21270,-1.92197,-1.11796,-1.88466,0
21290,-1.916,-1.12467,-1.88868,0
21310,-1.89953,-1.13471,-1.90353,0
21330,-1.87181,-1.14897,-1.92795,0
21350,-1.83062,-1.16615,-1.96872,0
21370,-1.76869,-1.18516,-2.03166,0
21390,-1.67669,-1.20337,-2.12321,0
21410,-1.55646,-1.21722,-2.24226,0
21430,-1.3987,-1.22705,-2.40103,0
21450,-1.19874,-1.22027,-2.59815,0
21470,-1.00696,-1.19603,-2.77922,0
21490,-0.839408,-1.15968,-2.93719,0
21510,-0.712039,-1.1121,-3.06334,0
21530,-0.610906,-1.05523,3.11928,0
21550,-0.526844,-0.988931,3.04046,0
21570,-0.466456,-0.920227,2.98863,0
21590,-0.420172,-0.856617,2.95053,0
21620,-0.348153,-0.735153,2.89363,0
21650,-0.30634,-0.632963,2.86313,0
21670,-0.291993,-0.596879,2.85567,0
21690,-0.280458,-0.568278,2.85317,0
21710,-0.272118,-0.55281,2.85191,0
21730,-0.267774,-0.548342,2.85086,0
21750,-0.270939,-0.552413,2.85221,0
21770,-0.276978,-0.565873,2.85146,0
21790,-0.281235,-0.588612,2.84951,0
21810,-0.288144,-0.620067,2.85004,0
21830,-0.299121,-0.661167,2.85398,0
21850,-0.313653,-0.711152,2.86452,0
21860,-0.334032,-0.770773,2.88442,0
21880,-0.364443,-0.837927,2.91694,0
21900,-0.407204,-0.907062,2.96243,0
21920,-0.467228,-0.977924,3.02694,0
21940,-0.549247,-1.04918,3.11305,0
21960,-0.653627,-1.11496,-3.06331,0
21980,-0.787836,-1.17016,-2.92476,0
22000,-0.946252,-1.21322,-2.76214,0
22020,-1.11735,-1.24189,-2.58782,0
22040,-1.2903,-1.25427,-2.41561,0
22060,-1.44174,-1.25462,-2.26622,0
22080,-1.55377,-1.24941,-2.15513,0
22100,-1.62737,-1.24028,-2.0803,0
22120,-1.66999,-1.22987,-2.03704,0
22140,-1.68553,-1.22003,-2.01985,0
22150,-1.66447,-1.20884,-2.03717,0
22170,-1.63441,-1.20366,-2.06437,0
22190,-1.60293,-1.19661,-2.09437,0
22210,-1.54897,-1.19029,-2.14527,0
22230,-1.5279,-1.1915,-2.16057,0
22250,-1.52199,-1.19437,-2.16143,0
22270,-1.52394,-1.19797,-2.15598,0
22290,-1.52614,-1.20036,-2.1495,0
22310,-1.5282,-1.20022,-2.14297,0
22330,-1.5221,-1.1972,-2.1427,0
22350,-1.51507,-1.19317,-2.1471,0
22370,-1.50385,-1.18443,-2.15692,0
22390,-1.48743,-1.17714,-2.16965,0
22410,-1.47445,-1.17406,-2.18113,0
22430,-1.46657,-1.17463,-2.18924,0
22450,-1.45605,-1.17788,-2.19929,0
22470,-1.43822,-1.17828,-2.21192,0
22490,-1.42088,-1.17526,-2.2247,0
22510,-1.4037,-1.17133,-2.23971,0
22530,-1.38607,-1.1682,-2.25505,0
22550,-1.36799,-1.16405,-2.26872,0
22570,-1.35229,-1.16137,-2.27907,0
22590,-1.34664,-1.16225,-2.28159,0
22610,-1.34674,-1.16386,-2.27827,0
22630,-1.3449,-1.1651,-2.27664,0
22650,-1.34211,-1.16968,-2.27485,0
22670,-1.34552,-1.17458,-2.26622,0
22690,-1.3535,-1.17864,-2.25743,0
22710,-1.36182,-1.18329,-2.24882,0
22730,-1.37003,-1.18693,-2.23804,0
22750,-1.37651,-1.18852,-2.22962,0
22770,-1.3761,-1.18719,-2.22946,0
22790,-1.37792,-1.18332,-2.227,0
22810,-1.37916,-1.18006,-2.22331,0
22830,-1.3744,-1.17796,-2.22592,0
22850,-1.367,-1.17465,-2.23171,0
22870,-1.35781,-1.17149,-2.23996,0
22890,-1.3438,-1.17011,-2.25135,0
22910,-1.32918,-1.16898,-2.26193,0
22930,-1.31836,-1.16761,-2.2708,0
22950,-1.31087,-1.1656,-2.27924,0
22970,-1.30543,-1.16204,-2.28564,0
22980,-1.3036,-1.15867,-2.28977,0
23000,-1.29929,-1.15619,-2.29552,0
23020,-1.29354,-1.15397,-2.30269,0
23040,-1.28922,-1.15175,-2.31013,0
23060,-1.28542,-1.15017,-2.31726,0
23080,-1.28231,-1.15163,-2.32346,0
23100,-1.28023,-1.15393,-2.32761,0
23120,-1.27725,-1.15575,-2.33234,0
23140,-1.27133,-1.15701,-2.34123,0
23160,-1.26226,-1.15926,-2.354,0
23180,-1.25019,-1.16219,-2.37073,0
23200,-1.23357,-1.16311,-2.39162,0
23220,-1.2128,-1.1629,-2.41652,0
23230,-1.18771,-1.16307,-2.44536,0
23250,-1.1569,-1.16406,-2.4813,0
23270,-1.11951,-1.16539,-2.52275,0
23300,-1.0367,-1.16274,-2.61332,0
23320,-0.990152,-1.16025,-2.66503,0
23340,-0.936667,-1.15653,-2.72227,0
23360,-0.87743,-1.14973,-2.78419,0
23380,-0.814657,-1.13945,-2.84997,0
23400,-0.749823,-1.12529,-2.9196,0
23420,-0.685217,-1.10711,-2.98866,0
23440,-0.622831,-1.08486,-3.05493,0
23460,-0.5622,-1.05654,-3.11976,0
23480,-0.506426,-1.02274,3.10292,0
23500,-0.456175,-0.985364,3.04847,0
23520,-0.409566,-0.944752,2.99882,0
23540,-0.37062,-0.901265,2.95857,0
23560,-0.340254,-0.855954,2.92699,0
23580,-0.317402,-0.809886,2.90416,0
23600,-0.298261,-0.764653,2.88689,0
23620,-0.283648,-0.721731,2.87674,0
23640,-0.273049,-0.681031,2.87173,0
23660,-0.266016,-0.640259,2.87054,0
23680,-0.260759,-0.600595,2.87249,0
23700,-0.258056,-0.564474,2.87652,0
23720,-0.255212,-0.52959,2.88199,0
23740,-0.25481,-0.493921,2.89062,0
23760,-0.254657,-0.459387,2.90063,0
23780,-0.253263,-0.427488,2.90998,0
23800,-0.25165,-0.398145,2.91907,0
23820,-0.249936,-0.370018,2.92847,0
23840,-0.246837,-0.341205,2.94036,0
23860,-0.243709,-0.314703,2.95486,0
23880,-0.239859,-0.29227,2.96742,0
23900,-0.235079,-0.269911,2.97947,0
23920,-0.230244,-0.244399,2.99209,0
23940,-0.226926,-0.216149,3.00598,0
23960,-0.226008,-0.190216,3.0196,0
23980,-0.227091,-0.164916,3.03153,0
24000,-0.229529,-0.137078,3.04392,0
24020,-0.23478,-0.106545,3.05738,0
24040,-0.241211,-0.0772825,3.06652,0
24060,-0.248932,-0.0484914,3.07183,0
24080,-0.259075,-0.0176927,3.07482,0
24100,-0.267285,0.0196547,3.07882,0
24120,-0.276569,0.0596366,3.08187,0
24140,-0.288732,0.0982151,3.08086,0
24160,-0.303327,0.137327,3.07811,0
24180,-0.318352,0.177391,3.0768,0
24200,-0.333815,0.218385,3.07328,0
24220,-0.346805,0.255995,3.06789,0
24240,-0.357342,0.291569,3.06562,0
24260,-0.367259,0.324607,3.06304,0
24280,-0.374105,0.352809,3.05596,0
24300,-0.373882,0.372211,3.04486,0
24320,-0.361461,0.382583,3.03939,0
24340,-0.338347,0.384575,3.0384,0
24360,-0.316962,0.379801,3.03749,0
24380,-0.303504,0.368645,3.03486,0
24400,-0.296853,0.350228,3.03155,0
24420,-0.290155,0.327338,3.03071,0
24440,-0.284465,0.299713,3.03162,0
24450,-0.279323,0.267126,3.03216,0
24470,-0.27533,0.230258,3.03286,0
24490,-0.269979,0.19099,3.03573,0
24510,-0.263737,0.149295,3.03985,0
24530,-0.256949,0.105363,3.04388,0
24550,-0.25192,0.0603645,3.04724,0
24570,-0.248116,0.0171824,3.05133,0
24590,-0.245958,-0.0234037,3.05687,0
24610,-0.247305,-0.0616409,3.06271,0
24630,-0.251682,-0.0976245,3.06991,0
24650,-0.25728,-0.127979,3.07909,0
24670,-0.265303,-0.154288,3.08686,0
24690,-0.276027,-0.177237,3.09363,0
24710,-0.29163,-0.196317,3.10083,0
24730,-0.308034,-0.211553,3.10784,0
24750,-0.323853,-0.222821,3.11367,0
24770,-0.336066,-0.231154,3.11978,0
24790,-0.345541,-0.236735,3.12582,0
24810,-0.352887,-0.241008,3.13244,0
24830,-0.356785,-0.244463,3.13815,0
24850,-0.358946,-0.246651,-3.14099,0
24870,-0.36542,-0.247751,-3.13535,0
24890,-0.376147,-0.248609,-3.12884,0
24900,-0.387314,-0.248136,-3.12276,0
24920,-0.398615,-0.24605,-3.11712,0
24940,-0.407573,-0.244016,-3.11214,0
24960,-0.413181,-0.242091,-3.10869,0
24980,-0.416166,-0.239904,-3.10528,0
25000,-0.417229,-0.237032,-3.10174,0
25020,-0.418076,-0.233977,-3.09977,0
25040,-0.419871,-0.231174,-3.09953,0
25060,-0.422002,-0.228289,-3.09953,0
25080,-0.422662,-0.225152,-3.09899,0
25100,-0.420798,-0.22208,-3.09874,0
25120,-0.418073,-0.220475,-3.0989,0
25140,-0.416453,-0.219376,-3.09845,0
25160,-0.416837,-0.218104,-3.09779,0
25180,-0.41758,-0.216762,-3.09737,0
25200,-0.418382,-0.215815,-3.09647,0
25220,-0.419311,-0.215617,-3.09491,0
25240,-0.419668,-0.215304,-3.09281,0
25260,-0.420444,-0.214943,-3.09115,0
25280,-0.421697,-0.214453,-3.09,0
25300,-0.423177,-0.213973,-3.08893,0
25320,-0.423878,-0.213534,-3.08807,0
25340,-0.423186,-0.21302,-3.08739,0
25360,-0.421584,-0.212108,-3.08663,0
25380,-0.419899,-0.211537,-3.08568,0
25400,-0.418188,-0.21146,-3.08526,0
25420,-0.41589,-0.211594,-3.08462,0
25440,-0.413368,-0.211803,-3.08373,0
25460,-0.41238,-0.212206,-3.08262,0
25480,-0.412289,-0.212591,-3.08143,0
25500,-0.411755,-0.212932,-3.08065,0
25520,-0.410995,-0.213118,-3.07969,0
25540,-0.410211,-0.213062,-3.07879,0
25560,-0.409722,-0.212762,-3.07853,0
25580,-0.409734,-0.212884,-3.0785,0
25600,-0.409363,-0.213047,-3.07865,0
25620,-0.40814,-0.212819,-3.07933,0
25640,-0.405959,-0.212213,-3.08058,0
25660,-0.402919,-0.211906,-3.082,0
25680,-0.399647,-0.211487,-3.08295,0
25700,-0.396054,-0.211425,-3.08374,0
25720,-0.392987,-0.211587,-3.08443,0
25740,-0.389658,-0.211895,-3.08524,0
25760,-0.385552,-0.21221,-3.08739,0
25780,-0.38163,-0.211954,-3.08987,0
25800,-0.377098,-0.211307,-3.09226,0
25820,-0.371079,-0.211657,-3.09472,0
25840,-0.364309,-0.214575,-3.09617,0
25860,-0.358712,-0.219376,-3.09779,0
25880,-0.352443,-0.224965,-3.10111,0
25900,-0.345483,-0.230353,-3.10484,0
25910,-0.337702,-0.236174,-3.10912,0
25930,-0.328669,-0.241462,-3.11419,0
25950,-0.319986,-0.245072,-3.11991,0
25970,-0.311714,-0.24726,-3.12569,0
25990,-0.305491,-0.249251,-3.13016,0
26010,-0.302165,-0.251264,-3.13312,0
26030,-0.298684,-0.25317,-3.13539,0
26050,-0.295416,-0.254316,-3.13589,0
26070,-0.294548,-0.255935,-3.13427,0
26090,-0.295986,-0.258243,-3.13125,0
26110,-0.297724,-0.260514,-3.12794,0
26130,-0.298326,-0.262022,-3.12465,0
26150,-0.298774,-0.263683,-3.12072,0
26170,-0.298107,-0.26496,-3.11676,0
26190,-0.296292,-0.265103,-3.11362,0
26210,-0.295806,-0.264659,-3.11064,0
26230,-0.295992,-0.264437,-3.10828,0
26250,-0.29562,-0.263487,-3.10611,0
26270,-0.294967,-0.261827,-3.10409,0
26290,-0.294056,-0.259762,-3.1019,0
26310,-0.293466,-0.257772,-3.10017,0
26330,-0.292488,-0.255785,-3.09848,0
26350,-0.291967,-0.253852,-3.09624,0
26370,-0.291589,-0.252134,-3.09381,0
26390,-0.291175,-0.250826,-3.09168,0
26410,-0.291994,-0.249672,-3.08976,0
26430,-0.292525,-0.248588,-3.08825,0
26450,-0.29254,-0.247508,-3.08679,0
26470,-0.292197,-0.247176,-3.08539,0
26490,-0.292174,-0.247583,-3.08384,0
26510,-0.291987,-0.248136,-3.08253,0
26530,-0.291612,-0.248795,-3.08186,0
26550,-0.290863,-0.249583,-3.08122,0
26570,-0.289636,-0.250607,-3.08047,0
26590,-0.287749,-0.251459,-3.08011,0
26610,-0.28661,-0.251989,-3.07942,0
26630,-0.286475,-0.252807,-3.07896,0
26650,-0.286838,-0.253602,-3.07842,0
26670,-0.287296,-0.25399,-3.07779,0
26690,-0.287918,-0.254782,-3.07722,0
26710,-0.288378,-0.255203,-3.07673,0
26730,-0.288855,-0.255607,-3.07611,0
26750,-0.289452,-0.256664,-3.07574,0
26770,-0.290323,-0.257432,-3.076,0
26790,-0.291123,-0.257633,-3.07661,0
26810,-0.290941,-0.257829,-3.0771,0
26830,-0.290365,-0.258347,-3.07799,0
26850,-0.28933,-0.258267,-3.07913,0
26870,-0.28887,-0.257205,-3.08035,0
26890,-0.289001,-0.255482,-3.08144,0
26910,-0.288786,-0.253655,-3.08251,0
26930,-0.288404,-0.251833,-3.08282,0
26950,-0.288223,-0.250437,-3.08267,0
26970,-0.287947,-0.249448,-3.08262,0
26990,-0.287946,-0.248263,-3.08217,0
27010,-0.288182,-0.248013,-3.08218,0
27030,-0.287412,-0.247649,-3.0822,0
27050,-0.286433,-0.247269,-3.08202,0
27070,-0.285841,-0.247083,-3.08162,0
27090,-0.285051,-0.247412,-3.08118,0
27110,-0.28427,-0.247831,-3.08059,0
27130,-0.283829,-0.248427,-3.07944,0
27150,-0.283799,-0.249091,-3.07798,0
27170,-0.283965,-0.249821,-3.07698,0
27190,-0.283897,-0.25043,-3.07592,0
27210,-0.284502,-0.251334,-3.07446,0
27230,-0.285706,-0.252279,-3.0733,0
27250,-0.286413,-0.252945,-3.07285,0
27270,-0.287871,-0.253723,-3.07241,0
27290,-0.289216,-0.255067,-3.07229,0
27310,-0.290478,-0.256607,-3.07276,0
27330,-0.290882,-0.258283,-3.0732,0
27350,-0.291452,-0.259887,-3.07411,0
27370,-0.291382,-0.261427,-3.07526,0
27390,-0.290724,-0.262407,-3.07682,0
27410,-0.288877,-0.262955,-3.07874,0
27430,-0.286868,-0.262723,-3.08053,0
27450,-0.28522,-0.262412,-3.08255,0
27470,-0.283685,-0.26208,-3.08455,0
27490,-0.28202,-0.261109,-3.08641,0
27510,-0.280665,-0.259676,-3.08767,0
27530,-0.279815,-0.258486,-3.08894,0
27550,-0.279296,-0.257757,-3.08987,0
27570,-0.278782,-0.257258,-3.09076,0
27590,-0.277761,-0.256655,-3.09173,0
27610,-0.276175,-0.255203,-3.09289,0
27630,-0.274812,-0.253922,-3.09437,0
27650,-0.274628,-0.253081,-3.0955,0
27670,-0.274494,-0.252454,-3.09636,0
27690,-0.274267,-0.252026,-3.09693,0
27710,-0.274437,-0.251985,-3.09754,0
27730,-0.275303,-0.252652,-3.09784,0
27750,-0.27712,-0.254365,-3.09773,0
27770,-0.278321,-0.256859,-3.09783,0
27790,-0.279344,-0.259141,-3.09823,0
27810,-0.281828,-0.26238,-3.0983,0
27830,-0.283124,-0.266365,-3.09918,0
27850,-0.283082,-0.26913,-3.10027,0
27870,-0.283156,-0.270867,-3.10113,0
27890,-0.284292,-0.272269,-3.10138,0
27910,-0.284873,-0.273477,-3.10113,0
27930,-0.286173,-0.273567,-3.09994,0
27950,-0.289445,-0.274152,-3.09802,0
27970,-0.293163,-0.274943,-3.09488,0
27990,-0.296195,-0.274218,-3.0917,0
28000,-0.299126,-0.272809,-3.08814,0
28040,-0.305044,-0.271047,-3.07997,0
28060,-0.307325,-0.269147,-3.07735,0
28080,-0.30854,-0.266603,-3.07557,0
28100,-0.308972,-0.265202,-3.07375,0
28120,-0.308838,-0.264825,-3.07284,0
28140,-0.307956,-0.264196,-3.07269,0
28160,-0.306788,-0.263465,-3.07272,0
28180,-0.306238,-0.262585,-3.07267,0
28200,-0.305946,-0.261701,-3.0726,0
28220,-0.304976,-0.260526,-3.07293,0
28240,-0.304447,-0.258708,-3.07328,0
28250,-0.304237,-0.257506,-3.07351,0
28270,-0.303427,-0.256807,-3.07373,0
28290,-0.302484,-0.256217,-3.07394,0
28330,-0.302342,-0.255722,-3.07392,0
28350,-0.302193,-0.255884,-3.07416,0
28370,-0.30187,-0.255588,-3.07463,0
28390,-0.302066,-0.256031,-3.07515,0
28420,-0.301373,-0.257711,-3.07721,0
28440,-0.300935,-0.257311,-3.0786,0
28460,-0.300684,-0.257689,-3.07955,0
28480,-0.300566,-0.257814,-3.07954,0
28500,-0.299634,-0.25793,-3.08017,0
28520,-0.299027,-0.258167,-3.08008,0
28540,-0.299179,-0.25905,-3.0793,0
28560,-0.299561,-0.259681,-3.07766,0
28580,-0.300555,-0.259897,-3.07587,0
28600,-0.302078,-0.260228,-3.074,0
28620,-0.303596,-0.260665,-3.07209,0
28640,-0.304952,-0.261316,-3.07069,0
28660,-0.305008,-0.261526,-3.07041,0
28680,-0.304346,-0.261554,-3.0706,0
28700,-0.303468,-0.261445,-3.07148,0
28720,-0.302657,-0.260892,-3.07268,0
28740,-0.301625,-0.259934,-3.07448,0
28760,-0.301048,-0.258456,-3.07628,0
28780,-0.300323,-0.256359,-3.07807,0
28800,-0.300585,-0.253863,-3.07978,0
28820,-0.302397,-0.251691,-3.08125,0
28840,-0.305235,-0.24939,-3.08263,0
28880,-0.312409,-0.245224,-3.08522,0
28900,-0.315769,-0.242897,-3.08729,0
28920,-0.318794,-0.240901,-3.08823,0
28940,-0.320968,-0.241241,-3.08889,0
28960,-0.320122,-0.242745,-3.09125,0
28980,-0.317988,-0.242954,-3.09334,0
29000,-0.31802,-0.242541,-3.09304,0
29020,-0.319084,-0.243479,-3.09189,0
29040,-0.316291,-0.244435,-3.09158,0
29060,-0.311858,-0.242679,-3.09055,0
29080,-0.31075,-0.240532,-3.08781,0
29100,-0.31011,-0.239019,-3.0844,0
29120,-0.31039,-0.237189,-3.08142,0
29140,-0.31482,-0.234213,-3.07862,0
29160,-0.319554,-0.231864,-3.07443,0
29180,-0.321594,-0.230432,-3.0703,0
29200,-0.32347,-0.229493,-3.06774,0
29220,-0.324394,-0.22923,-3.06618,0
29240,-0.32536,-0.2304,-3.06501,0
29260,-0.326105,-0.232119,-3.06488,0
29280,-0.325457,-0.233109,-3.06554,0
29300,-0.323537,-0.234137,-3.06634,0
29320,-0.321883,-0.234909,-3.06705,0
29340,-0.32029,-0.235313,-3.06791,0
29360,-0.318257,-0.236011,-3.06968,0
29380,-0.31604,-0.236295,-3.07052,0
29400,-0.313635,-0.235715,-3.06968,0
29420,-0.313005,-0.235166,-3.06848,0
29440,-0.314674,-0.235416,-3.0671,0
29460,-0.317078,-0.23591,-3.06497,0
29480,-0.31914,-0.235835,-3.06236,0
29500,-0.320784,-0.235429,-3.05998,0
29520,-0.322522,-0.235483,-3.05815,0
29540,-0.324539,-0.235771,-3.0571,0
29560,-0.326476,-0.235746,-3.05648,0
29580,-0.327356,-0.235338,-3.05633,0
29600,-0.327104,-0.234947,-3.05704,0
29620,-0.32705,-0.234113,-3.05806,0
29640,-0.327791,-0.233618,-3.05893,0
29660,-0.328388,-0.233145,-3.05994,0
29680,-0.327864,-0.232263,-3.06064,0
29700,-0.327329,-0.231579,-3.0617,0
29720,-0.326447,-0.231644,-3.06279,0
29740,-0.325442,-0.231603,-3.06393,0
29760,-0.324336,-0.231346,-3.06459,0
29780,-0.324348,-0.231469,-3.06457,0
29800,-0.324769,-0.231654,-3.06423,0
29820,-0.325399,-0.230826,-3.0638,0
29840,-0.327543,-0.229795,-3.06309,0
29860,-0.328772,-0.229497,-3.06213,0
29880,-0.328388,-0.229044,-3.06087,0
29900,-0.328765,-0.228452,-3.05956,0
29920,-0.330965,-0.228514,-3.05791,0
29940,-0.332104,-0.22844,-3.0568,0
29960,-0.332583,-0.227277,-3.05518,0
29980,-0.333022,-0.226352,-3.05332,0
30000,-0.330877,-0.225438,-3.05198,0
30020,-0.329498,-0.224758,-3.05064,0
30040,-0.329611,-0.224941,-3.04872,1000
30060,-0.327532,-0.226219,-3.04701,0
30080,-0.322679,-0.228688,-3.04433,0
30100,-0.317951,-0.232046,-3.04012,0
30120,-0.3154,-0.236068,-3.03491,0
30140,-0.3143,-0.238916,-3.03046,0
30160,-0.312262,-0.241665,-3.02666,0
30180,-0.308438,-0.244422,-3.02236,0
30190,-0.304337,-0.247393,-3.01758,0
30210,-0.301499,-0.251366,-3.01232,0
30230,-0.299125,-0.254613,-3.00716,0
30250,-0.296612,-0.25724,-3.00274,0
30270,-0.293041,-0.260419,-2.99825,0
30290,-0.288742,-0.264468,-2.99335,0
30310,-0.285445,-0.269065,-2.989,0
30330,-0.283017,-0.273542,-2.98484,0
30350,-0.281205,-0.278257,-2.98089,0
30370,-0.278846,-0.283803,-2.97717,0
30390,-0.274983,-0.289162,-2.97419,0
30410,-0.271188,-0.293683,-2.97127,0
30430,-0.267722,-0.297943,-2.96844,0
30450,-0.263862,-0.302191,-2.9673,0
30470,-0.26065,-0.306267,-2.966,0
30490,-0.258149,-0.309598,-2.96519,0
30510,-0.255937,-0.312701,-2.96474,0
30530,-0.254057,-0.316739,-2.96376,0
30550,-0.251496,-0.321022,-2.96245,0
30570,-0.249388,-0.325076,-2.9614,0
30590,-0.246147,-0.329724,-2.96067,0
30610,-0.243305,-0.335107,-2.95971,0
30630,-0.241038,-0.340714,-2.95909,0
30650,-0.239529,-0.34594,-2.95889,0
30670,-0.238474,-0.351385,-2.95849,0
30690,-0.236493,-0.356038,-2.95847,0
30710,-0.235015,-0.36001,-2.95811,0
30730,-0.233092,-0.363984,-2.95746,0
30750,-0.231296,-0.3676,-2.95719,0
30770,-0.230062,-0.370945,-2.95711,0
30790,-0.229377,-0.374104,-2.9567,0
30810,-0.228632,-0.377074,-2.95706,0
30830,-0.22763,-0.380178,-2.95701,0
30850,-0.226597,-0.382937,-2.95622,0
30870,-0.225269,-0.38582,-2.95637,0
30890,-0.223288,-0.388801,-2.95724,0
30910,-0.222346,-0.392042,-2.95752,0
30930,-0.22104,-0.394918,-2.95756,0
30950,-0.219241,-0.397397,-2.95849,0
30970,-0.218221,-0.400205,-2.95948,0
30990,-0.218373,-0.403651,-2.96002,0
31010,-0.216921,-0.406641,-2.96132,0
31030,-0.214759,-0.41011,-2.96323,0
31050,-0.214128,-0.414587,-2.96493,0
31070,-0.214945,-0.41963,-2.96666,0
31090,-0.215324,-0.423879,-2.9693,0
31110,-0.214956,-0.427016,-2.97302,0
31130,-0.215163,-0.430668,-2.97718,0
31150,-0.21627,-0.434571,-2.98186,0
31170,-0.216464,-0.437212,-2.98761,0
31190,-0.216063,-0.439184,-2.99353,0
31210,-0.216317,-0.441386,-2.99985,0
31230,-0.21749,-0.443806,-3.00608,0
31250,-0.218891,-0.445916,-3.01281,0
31270,-0.219777,-0.446531,-3.02107,0
31290,-0.220401,-0.446942,-3.03048,0
31310,-0.220981,-0.447607,-3.04007,0
31330,-0.221366,-0.448933,-3.04964,0
31350,-0.22092,-0.451044,-3.05919,0
31370,-0.22018,-0.454054,-3.0686,0
31390,-0.21993,-0.457292,-3.07799,0
31410,-0.219961,-0.460438,-3.08655,0
31430,-0.220832,-0.463523,-3.09419,0
31450,-0.221702,-0.465873,-3.10102,0
31470,-0.222528,-0.468609,-3.10757,0
31490,-0.223668,-0.470754,-3.11426,0
31510,-0.225624,-0.471963,-3.12046,0
31530,-0.227669,-0.472499,-3.12723,0
31550,-0.228915,-0.472664,-3.13411,0
31570,-0.230347,-0.472459,-3.14074,0
31590,-0.231453,-0.471886,3.13557,0
31610,-0.232159,-0.471435,3.12796,0
31630,-0.231795,-0.471843,3.12009,0
31650,-0.231752,-0.472883,3.11349,0
31670,-0.232408,-0.474695,3.10715,0
31690,-0.233127,-0.476895,3.10061,0
31710,-0.233962,-0.479594,3.09453,0
31730,-0.23542,-0.482392,3.08898,0
31750,-0.236251,-0.485078,3.08302,0
31770,-0.236773,-0.486943,3.07638,0
31790,-0.237759,-0.488206,3.06902,0
31810,-0.238015,-0.488597,3.06126,0
31830,-0.237458,-0.489081,3.0533,0
31850,-0.237236,-0.48961,3.04517,0
31870,-0.237193,-0.489415,3.03714,0
31890,-0.2371,-0.488824,3.02891,0
31910,-0.236633,-0.489144,3.0207,0
31930,-0.235628,-0.489743,3.01249,0
31950,-0.234033,-0.490633,3.00393,0
31970,-0.232222,-0.49165,2.99507,0
31990,-0.230658,-0.493112,2.98681,0
32010,-0.228732,-0.494819,2.97822,0
32030,-0.226064,-0.496648,2.96982,0
32050,-0.223935,-0.498405,2.96155,0
32070,-0.222563,-0.499897,2.95319,0
32090,-0.221253,-0.500962,2.94503,0
32110,-0.219061,-0.50116,2.9367,0
32130,-0.216736,-0.501067,2.92873,0
32150,-0.215316,-0.501401,2.92097,0
32170,-0.213437,-0.502026,2.91249,0
32190,-0.210863,-0.502474,2.9037,0
32210,-0.20841,-0.502693,2.8948,0
32230,-0.206036,-0.503181,2.8858,0
32250,-0.203454,-0.504031,2.87665,0
32270,-0.20051,-0.504316,2.86736,0
32290,-0.197686,-0.505028,2.85773,0
32310,-0.195445,-0.505893,2.84849,0
32330,-0.193092,-0.507242,2.83908,0
32350,-0.190335,-0.508621,2.83014,0
32370,-0.187813,-0.510146,2.82124,0
32390,-0.185875,-0.511702,2.81271,0
32410,-0.183733,-0.512892,2.80371,0
32430,-0.180732,-0.513863,2.79425,0
32450,-0.177876,-0.514805,2.7849,0
32470,-0.175049,-0.515726,2.77568,0
32490,-0.172031,-0.516765,2.76631,0
32510,-0.16918,-0.517828,2.75665,0
32530,-0.166595,-0.518947,2.74709,0
32550,-0.16405,-0.520162,2.73779,0
32570,-0.160738,-0.521145,2.72789,0
32590,-0.157978,-0.522196,2.71823,0
32610,-0.15577,-0.523847,2.70918,0
32630,-0.153571,-0.525457,2.70074,0
32650,-0.150609,-0.527106,2.69193,0
32670,-0.147305,-0.528833,2.68294,0
32690,-0.145665,-0.530255,2.67413,0
32710,-0.143784,-0.530743,2.66513,0
32730,-0.141435,-0.531172,2.65633,0
32750,-0.139423,-0.531915,2.64811,0
32770,-0.137868,-0.530621,2.63929,0
32790,-0.13488,-0.528189,2.62937,0
32810,-0.132561,-0.526178,2.61929,0
32830,-0.132228,-0.52448,2.61104,0
32850,-0.131559,-0.522474,2.60317,0
32870,-0.128825,-0.519733,2.59463,0
32890,-0.126083,-0.517646,2.58667,0
32910,-0.125679,-0.517389,2.58102,0
32930,-0.126397,-0.518727,2.57685,0
32950,-0.126248,-0.520091,2.57243,0
32970,-0.125358,-0.520816,2.56808,0
32990,-0.124614,-0.521057,2.56376,0
33010,-0.123887,-0.520773,2.55946,0
33030,-0.124156,-0.520042,2.55596,0
33050,-0.124686,-0.517266,2.55274,0
33070,-0.123569,-0.513043,2.55025,0
33090,-0.122049,-0.509922,2.54738,0
33110,-0.120331,-0.508152,2.54583,0
33130,-0.118735,-0.506281,2.54411,0
33150,-0.116983,-0.502938,2.54045,0
33170,-0.115606,-0.499966,2.53599,0
33190,-0.116342,-0.498124,2.53285,0
33210,-0.11801,-0.496887,2.53159,0
33230,-0.118655,-0.494903,2.5301,0
33250,-0.117553,-0.492458,2.52733,0
33270,-0.116186,-0.488807,2.52468,0
33290,-0.117104,-0.485433,2.52361,0
33310,-0.119364,-0.482424,2.52307,0
33330,-0.12187,-0.478217,2.52259,0
33350,-0.122952,-0.473134,2.52105,0
33370,-0.125121,-0.468388,2.52066,0
33390,-0.129077,-0.46568,2.52221,0
33410,-0.132834,-0.463073,2.52363,0
33430,-0.134812,-0.460031,2.52359,0
33450,-0.136676,-0.456977,2.52361,0
33470,-0.138512,-0.454683,2.52397,0
33490,-0.14019,-0.452625,2.52393,0
33510,-0.141249,-0.450774,2.52376,0
33530,-0.141595,-0.448965,2.52342,0
33550,-0.141849,-0.446687,2.52256,0
33570,-0.142414,-0.44422,2.52165,0
33580,-0.143314,-0.441961,2.52137,0
33600,-0.144017,-0.439477,2.52109,0
33620,-0.144289,-0.436408,2.5204,0
33640,-0.145477,-0.432365,2.51946,0
33660,-0.147507,-0.428095,2.51909,0
33680,-0.14978,-0.423761,2.51916,0
33700,-0.151353,-0.41805,2.5189,0
33720,-0.152377,-0.411915,2.51853,0
33740,-0.154774,-0.407532,2.51921,0
33760,-0.157501,-0.404277,2.52076,0
33780,-0.159242,-0.400224,2.52133,0
33800,-0.160579,-0.395767,2.52192,0
33820,-0.162816,-0.392338,2.52272,0
33840,-0.164885,-0.38873,2.52373,0
33860,-0.16667,-0.384334,2.52483,0
33880,-0.168377,-0.381114,2.52681,0
33900,-0.170702,-0.379479,2.52992,0
33920,-0.173519,-0.377577,2.53318,0
33940,-0.176894,-0.374674,2.53649,0
33960,-0.180218,-0.371801,2.5396,0
33980,-0.183947,-0.369005,2.54301,0
34000,-0.18841,-0.366327,2.54719,0
34020,-0.192002,-0.363335,2.55043,0
34040,-0.195361,-0.359378,2.55292,0
34060,-0.200193,-0.355837,2.55652,0
34080,-0.205793,-0.353376,2.5613,0
34100,-0.210609,-0.350906,2.5653,0
34120,-0.215321,-0.348346,2.56946,0
34140,-0.219135,-0.345545,2.57336,0
34160,-0.223601,-0.34248,2.57775,0
34180,-0.22876,-0.339613,2.58205,0
34200,-0.233382,-0.336927,2.58576,0
34220,-0.236971,-0.333866,2.58984,0
34240,-0.241985,-0.331319,2.59495,0
34260,-0.246587,-0.329962,2.59955,0
34280,-0.248995,-0.32818,2.60444,0
34300,-0.251721,-0.3262,2.60946,0
34320,-0.254994,-0.324499,2.61438,0
34340,-0.257791,-0.322462,2.61901,0
34360,-0.261055,-0.320138,2.62379,0
34380,-0.266476,-0.319291,2.63012,0
34400,-0.271925,-0.319326,2.63637,0
34420,-0.276264,-0.318849,2.64217,0
34440,-0.281109,-0.318238,2.64867,0
34460,-0.286682,-0.318609,2.65561,0
34480,-0.292903,-0.319354,2.66208,0
34500,-0.297632,-0.318778,2.6678,0
34520,-0.301882,-0.316662,2.67336,0
34540,-0.306821,-0.315145,2.67934,0
34560,-0.309838,-0.313017,2.6845,0
34580,-0.312289,-0.309558,2.68917,0
34600,-0.31624,-0.306775,2.69482,0
34620,-0.319551,-0.304218,2.69982,0
34640,-0.323024,-0.300963,2.70523,0
34660,-0.328368,-0.29884,2.71225,0
34680,-0.332482,-0.298449,2.71928,0
34700,-0.33556,-0.29771,2.72592,0
34720,-0.338707,-0.296802,2.73284,0
34740,-0.342667,-0.296837,2.74041,0
34760,-0.3453,-0.297296,2.74731,0
34780,-0.347623,-0.296546,2.75412,0
34800,-0.350998,-0.296034,2.76149,0
34820,-0.354128,-0.295834,2.76826,0
34840,-0.357008,-0.294586,2.77481,0
34860,-0.360351,-0.292794,2.78133,0
34880,-0.363922,-0.291665,2.78852,0
34900,-0.366821,-0.290422,2.79543,0
34920,-0.369807,-0.288507,2.80246,0
34940,-0.373975,-0.287641,2.80984,0
34960,-0.377369,-0.286805,2.81622,0
34980,-0.380671,-0.285293,2.82324,0
35000,-0.383616,-0.284436,2.8303,0
35020,-0.38637,-0.284273,2.83749,0
35040,-0.388708,-0.284493,2.84481,0
35060,-0.390533,-0.283846,2.85106,0
35080,-0.392554,-0.282675,2.85747,0
35100,-0.394549,-0.282322,2.86462,0
35120,-0.396368,-0.282889,2.87208,0
35140,-0.397742,-0.282967,2.87963,0
35160,-0.400348,-0.283215,2.8879,0
35180,-0.403679,-0.284103,2.89646,0
35200,-0.406924,-0.284415,2.90468,0
35220,-0.410391,-0.284129,2.9133,0
35240,-0.413703,-0.285176,2.92255,0
35260,-0.415882,-0.285745,2.93145,0
35280,-0.418774,-0.28675,2.94104,0
35300,-0.421628,-0.288812,2.95083,0
35320,-0.42411,-0.29018,2.96006,0
35340,-0.42822,-0.291308,2.96996,0
35360,-0.433629,-0.293632,2.98017,0
35380,-0.436799,-0.295934,2.98971,0
35400,-0.438742,-0.297621,2.99909,0
35420,-0.442244,-0.299952,3.0096,0
35440,-0.446026,-0.302697,3.02,0
35460,-0.449056,-0.304481,3.02921,0
35480,-0.452831,-0.306123,3.03913,0
35500,-0.457522,-0.308512,3.04988,0
35520,-0.460862,-0.31189,3.06068,0
35530,-0.463152,-0.314893,3.07164,0
35550,-0.466198,-0.318003,3.08326,0
35570,-0.471582,-0.322334,3.09619,0
35590,-0.476985,-0.326648,3.10891,0
35610,-0.482499,-0.331258,3.1224,0
35630,-0.489645,-0.336353,3.13812,0
35650,-0.496862,-0.34284,-3.13005,0
35670,-0.503201,-0.348674,-3.11632,0
35690,-0.509325,-0.354147,-3.10198,0
35710,-0.515229,-0.359403,-3.08745,0
35730,-0.519116,-0.365506,-3.07301,0
35750,-0.522394,-0.37181,-3.05845,0
35770,-0.526461,-0.377562,-3.04423,0
35790,-0.531234,-0.383321,-3.03018,0
35810,-0.535528,-0.389884,-3.01631,0
35830,-0.538726,-0.395904,-3.00323,0
35850,-0.541019,-0.401087,-2.98997,0
35870,-0.544017,-0.407222,-2.97639,0
35890,-0.547207,-0.413271,-2.96351,0
35910,-0.550774,-0.418267,-2.9516,0
35930,-0.553872,-0.423468,-2.93996,0
35950,-0.554845,-0.429269,-2.92822,0
35970,-0.555179,-0.435194,-2.9168,0
35990,-0.555613,-0.441341,-2.90609,0
36010,-0.555679,-0.447956,-2.89596,0
36030,-0.555038,-0.45449,-2.88628,0
36050,-0.554838,-0.460451,-2.87736,0
36070,-0.555762,-0.466232,-2.86806,0
36090,-0.555988,-0.472119,-2.85936,0
36110,-0.554986,-0.477565,-2.85162,0
36130,-0.554419,-0.482705,-2.84473,0
36150,-0.554319,-0.488535,-2.8376,0
36170,-0.55434,-0.494516,-2.83044,0
36190,-0.552681,-0.501009,-2.82465,0
36210,-0.549994,-0.507705,-2.81915,0
36230,-0.548068,-0.51538,-2.81407,0
36250,-0.547009,-0.523362,-2.80926,0
36270,-0.5469,-0.530915,-2.8041,0
36290,-0.548579,-0.538631,-2.79856,0
36310,-0.548838,-0.546668,-2.79372,0
36330,-0.548133,-0.555334,-2.78928,0
36350,-0.548339,-0.563316,-2.78568,0
36370,-0.549404,-0.570152,-2.7827,0
36390,-0.549101,-0.577345,-2.78011,0
36410,-0.548041,-0.585724,-2.77736,0
36430,-0.547908,-0.593751,-2.77472,0
36450,-0.548719,-0.602033,-2.77232,0
36470,-0.547638,-0.609802,-2.76972,0
36490,-0.547385,-0.61859,-2.76709,0
36510,-0.548372,-0.627833,-2.76379,0
36530,-0.549789,-0.636668,-2.76058,0
36550,-0.549908,-0.645511,-2.75868,0
36570,-0.549071,-0.653275,-2.75824,0
36590,-0.548487,-0.661727,-2.75726,0
36610,-0.547932,-0.670072,-2.75692,0
36630,-0.545178,-0.677524,-2.75913,0
36650,-0.541591,-0.685029,-2.76266,0
36670,-0.539856,-0.691633,-2.76533,0
36690,-0.537913,-0.697994,-2.76822,0
36710,-0.53387,-0.704718,-2.773,0
36730,-0.530327,-0.711375,-2.77819,0
36750,-0.529631,-0.718162,-2.78221,0
36770,-0.528816,-0.725361,-2.78632,0
36790,-0.525122,-0.732084,-2.7931,0
36810,-0.520711,-0.739247,-2.80049,0
36830,-0.51789,-0.746471,-2.80689,0
36850,-0.516171,-0.753891,-2.81263,0
36870,-0.512357,-0.761693,-2.82049,0
36900,-0.504657,-0.777818,-2.83461,0
36920,-0.502654,-0.787072,-2.84048,0
36940,-0.498817,-0.796347,-2.84758,0
36970,-0.489194,-0.814323,-2.86385,0
36990,-0.485726,-0.823294,-2.87109,0
37010,-0.481271,-0.83164,-2.87965,0
37030,-0.474987,-0.839079,-2.89029,0
37050,-0.469013,-0.845799,-2.90136,0
37070,-0.46476,-0.852138,-2.911,0
37090,-0.460814,-0.85824,-2.91972,0
37110,-0.456781,-0.864759,-2.92882,0
37130,-0.451688,-0.871266,-2.93929,0
37150,-0.446982,-0.878725,-2.95016,0
37170,-0.441159,-0.886421,-2.96207,0
37190,-0.43465,-0.89439,-2.97501,0
37210,-0.427966,-0.901963,-2.98826,0
37230,-0.420761,-0.910334,-3.00236,0
37250,-0.412359,-0.918861,-3.01807,0
37270,-0.404661,-0.92724,-3.03376,0
37290,-0.396867,-0.935855,-3.05026,0
37310,-0.387863,-0.944845,-3.06777,0
37330,-0.379731,-0.954039,-3.08528,0
37350,-0.368954,-0.962426,-3.10544,0
37370,-0.357629,-0.970914,-3.12631,0
37390,-0.347797,-0.978734,3.13667,0
37410,-0.33904,-0.985835,3.11702,0
37430,-0.328566,-0.992532,3.09552,0
37450,-0.315168,-0.99809,3.0709,0
37470,-0.302373,-1.00275,3.0469,0
37490,-0.290556,-1.0065,3.02393,0
37510,-0.276451,-1.00979,2.99928,0
37530,-0.26079,-1.01227,2.97348,0
37550,-0.244125,-1.01267,2.94662,0
37570,-0.227157,-1.01213,2.91994,0
37590,-0.209759,-1.01097,2.89335,0
37610,-0.193386,-1.00842,2.8681,0
37630,-0.176187,-1.00465,2.84224,0
37650,-0.157186,-1,2.8155,0
37670,-0.13939,-0.995651,2.79053,0
37690,-0.124866,-0.991512,2.76909,0
37710,-0.111687,-0.987391,2.74946,0
37730,-0.0960316,-0.982823,2.72802,0
37750,-0.0804687,-0.977553,2.70681,0
37770,-0.0693718,-0.972293,2.6901,0
37790,-0.0603145,-0.967589,2.67568,0
37810,-0.0490187,-0.962472,2.65961,0
37830,-0.0372224,-0.957548,2.64415,0
37850,-0.0286163,-0.953185,2.63138,0
37870,-0.022321,-0.949568,2.62116,0
37890,-0.015806,-0.946003,2.61101,0
37910,-0.00725716,-0.940688,2.59861,0
37930,0.000320629,-0.935207,2.58765,0
37950,0.00616182,-0.92988,2.57836,0
37970,0.0115393,-0.9255,2.56987,0
37990,0.0175162,-0.921119,2.5607,0
38010,0.0236672,-0.915818,2.55161,0
38030,0.0292338,-0.909676,2.54279,0
38050,0.035032,-0.903298,2.53378,0
38070,0.0393112,-0.89777,2.526,0
38090,0.044071,-0.892122,2.51793,0
38110,0.0483364,-0.886563,2.51167,0
38130,0.0521506,-0.880747,2.50553,0
38150,0.0574299,-0.874287,2.49842,0
38170,0.0605138,-0.867744,2.49247,0
38180,0.0619421,-0.861562,2.48781,0
38200,0.0645114,-0.855785,2.48309,0
38220,0.069127,-0.848226,2.47643,0
38240,0.0744311,-0.839471,2.46967,0
38260,0.0771768,-0.83196,2.46377,0
38280,0.0791981,-0.8259,2.45871,0
38300,0.0819158,-0.81956,2.45398,0
38320,0.0863051,-0.812847,2.44915,0
38340,0.0898631,-0.806225,2.44435,0
38360,0.0928491,-0.800392,2.44016,0
38380,0.0940415,-0.795168,2.43733,0
38400,0.0949341,-0.789688,2.4349,0
38420,0.0963792,-0.783925,2.43258,0
38440,0.0968165,-0.778377,2.4311,0
38460,0.0956814,-0.772984,2.43045,0
38480,0.0946768,-0.767904,2.42983,0
38500,0.0937444,-0.762393,2.42859,0
38520,0.0930254,-0.756557,2.42756,0
38540,0.0910619,-0.750909,2.42732,0
38560,0.088636,-0.745527,2.42781,0
38580,0.0876114,-0.740708,2.42743,0
38600,0.0869504,-0.73605,2.42737,0
38620,0.0827828,-0.732416,2.43045,0
38640,0.077424,-0.729667,2.43402,0
38660,0.0732542,-0.725759,2.43692,0
38680,0.0680821,-0.721016,2.44032,0
38700,0.0604078,-0.716999,2.44446,0
38720,0.0517041,-0.713017,2.44928,0
38740,0.0432474,-0.70814,2.45486,0
38760,0.035037,-0.702747,2.45943,0
38780,0.0263205,-0.697203,2.46422,0
38800,0.0166416,-0.691408,2.4697,0
38820,0.00690523,-0.684941,2.47483,0
38840,-0.00137683,-0.678669,2.47935,0
38860,-0.0117167,-0.672606,2.48498,0
38880,-0.0228574,-0.667017,2.49044,0
38890,-0.0324155,-0.660794,2.49599,0
38910,-0.0418074,-0.654428,2.50153,0
38930,-0.0527318,-0.650145,2.50859,0
38950,-0.0655787,-0.646785,2.51719,0
38970,-0.0776816,-0.643256,2.52478,0
38990,-0.0884134,-0.637762,2.53104,0
39010,-0.100189,-0.632072,2.53852,0
39030,-0.111741,-0.626562,2.5448,0
39050,-0.121344,-0.620593,2.55067,0
39070,-0.1295,-0.613777,2.55653,0
39090,-0.136781,-0.608018,2.56107,0
39110,-0.146031,-0.605331,2.56711,0
39130,-0.155206,-0.60395,2.57375,0
39150,-0.164604,-0.602833,2.58054,0
39170,-0.173198,-0.601593,2.58685,0
39190,-0.180763,-0.600083,2.59312,0
39210,-0.188848,-0.597782,2.59917,0
39230,-0.19751,-0.595044,2.60462,0
39250,-0.206341,-0.590826,2.609,0
39270,-0.215458,-0.585806,2.61333,0
39290,-0.224026,-0.580833,2.6183,0
39310,-0.231232,-0.575922,2.62288,0
39330,-0.239172,-0.571649,2.62789,0
39350,-0.246848,-0.568008,2.63257,0
39370,-0.254488,-0.564393,2.63826,0
39390,-0.26434,-0.562396,2.64623,0
39410,-0.273553,-0.561153,2.65354,0
39430,-0.281606,-0.559487,2.66123,0
39450,-0.288845,-0.558037,2.66912,0
39470,-0.29563,-0.556342,2.67669,0
39490,-0.302335,-0.553975,2.68351,0
39510,-0.309549,-0.550077,2.6902,0
39530,-0.317177,-0.546241,2.69724,0
39550,-0.32411,-0.542854,2.70399,0
39570,-0.330601,-0.53873,2.71134,0
39590,-0.336793,-0.535202,2.71855,0
39610,-0.342574,-0.531321,2.72558,0
39630,-0.348247,-0.527133,2.73321,0
39650,-0.354863,-0.523718,2.74107,0
39670,-0.361344,-0.520676,2.74985,0
39690,-0.367401,-0.517284,2.75899,0
39710,-0.373251,-0.514293,2.76823,0
39730,-0.380537,-0.512598,2.77826,0
39750,-0.387093,-0.51097,2.78755,0
39770,-0.392784,-0.508868,2.79686,0
39790,-0.399791,-0.508082,2.80755,0
39810,-0.405506,-0.507451,2.81731,0
39830,-0.410773,-0.506353,2.82671,0
39850,-0.416406,-0.505963,2.83677,0
39870,-0.42199,-0.506135,2.84689,0
39890,-0.426488,-0.505741,2.85664,0
39910,-0.431659,-0.505072,2.8669,0
39930,-0.438219,-0.505318,2.87789,0
39950,-0.444964,-0.505811,2.88848,0
39970,-0.45153,-0.50618,2.89928,0
39990,-0.457443,-0.506948,2.91026,0
40010,-0.463615,-0.508028,2.92112,0
40030,-0.469349,-0.508914,2.93172,0
40050,-0.474479,-0.509396,2.94236,0
40070,-0.479615,-0.510608,2.95357,0
40090,-0.484284,-0.512266,2.96503,0
40110,-0.489171,-0.51376,2.97666,0
40130,-0.495392,-0.515271,2.98929,0
40150,-0.502526,-0.51748,3.00339,0
40170,-0.510394,-0.520365,3.01853,0
40190,-0.517601,-0.522756,3.03343,0
40210,-0.526025,-0.52496,3.04877,0
40230,-0.536435,-0.528084,3.06517,0
40250,-0.54659,-0.532031,3.08221,0
40270,-0.555089,-0.536095,3.09891,0
40290,-0.56373,-0.540831,3.1166,0
40310,-0.572326,-0.546057,3.13473,0
40330,-0.581022,-0.551638,-3.13006,0
40350,-0.589601,-0.557552,-3.11133,0
40370,-0.598976,-0.56355,-3.09198,0
40390,-0.608312,-0.570492,-3.07248,0
40410,-0.61728,-0.577309,-3.05277,0
40430,-0.625396,-0.583463,-3.03349,0
40450,-0.634156,-0.590158,-3.01517,0
40470,-0.644167,-0.59705,-2.99705,0
40490,-0.653933,-0.603969,-2.97834,0
40510,-0.661804,-0.611001,-2.95905,0
40530,-0.669364,-0.61787,-2.94012,0
40550,-0.676991,-0.624746,-2.92247,0
40570,-0.685068,-0.631143,-2.90658,0
40590,-0.693804,-0.636308,-2.89203,0
40610,-0.698694,-0.64055,-2.87981,0
40630,-0.700073,-0.645592,-2.86767,0
40650,-0.701185,-0.652141,-2.85489,0
40670,-0.703135,-0.659873,-2.84256,0
40690,-0.704601,-0.667937,-2.83198,0
40710,-0.704819,-0.676246,-2.82189,0
40730,-0.705982,-0.684503,-2.81067,0
40750,-0.707782,-0.693576,-2.79877,0
40770,-0.710059,-0.704544,-2.78759,0
40790,-0.712987,-0.715478,-2.77712,0
40810,-0.717733,-0.725508,-2.76753,0
40820,-0.720901,-0.735398,-2.75893,0
40840,-0.722276,-0.745171,-2.75138,0
40860,-0.724409,-0.755124,-2.74395,0
40880,-0.725549,-0.765052,-2.73984,0
40900,-0.723679,-0.774722,-2.73817,0
40920,-0.720971,-0.784765,-2.738,0
40940,-0.717409,-0.79561,-2.73879,0
40960,-0.712043,-0.806748,-2.74177,0
40980,-0.705249,-0.818314,-2.74598,0
41000,-0.699797,-0.831399,-2.74918,0
41020,-0.695386,-0.845274,-2.75255,0
41040,-0.690234,-0.859145,-2.75714,0
41060,-0.683484,-0.87274,-2.76472,0
41080,-0.678012,-0.885637,-2.7709,0
41100,-0.674544,-0.900096,-2.77548,0
41120,-0.670335,-0.915018,-2.78092,0
41140,-0.665611,-0.92841,-2.78733,0
41160,-0.659558,-0.9424,-2.7954,0
41180,-0.651973,-0.956709,-2.80474,0
41200,-0.646318,-0.97122,-2.8128,0
41220,-0.642414,-0.985776,-2.82075,0
41240,-0.634869,-1.00016,-2.83216,0
41260,-0.624668,-1.0134,-2.8452,0
41280,-0.614274,-1.02672,-2.85904,0
41300,-0.606561,-1.04006,-2.86981,0
41320,-0.59853,-1.05402,-2.88159,0
41340,-0.588677,-1.06706,-2.89523,0
41360,-0.578064,-1.07891,-2.91038,0
41380,-0.568344,-1.09101,-2.92478,0
41400,-0.557212,-1.10223,-2.94051,0
41420,-0.544423,-1.1127,-2.95813,0
41440,-0.528548,-1.1217,-2.97937,0
41460,-0.51005,-1.12902,-3.00358,0
41480,-0.490256,-1.136,-3.02907,0
41500,-0.472786,-1.14315,-3.05282,0
41520,-0.455335,-1.15011,-3.07713,0
41540,-0.43604,-1.15644,-3.10352,0
41560,-0.414991,-1.16232,-3.13245,0
41580,-0.392452,-1.16788,3.12017,0
41600,-0.370989,-1.17366,3.09056,0
41620,-0.34873,-1.17892,3.06016,0
41640,-0.323256,-1.18387,3.02615,0
41660,-0.297869,-1.1884,2.99238,0
41680,-0.27079,-1.19154,2.95687,0
41710,-0.21181,-1.19318,2.88232,0
41730,-0.183013,-1.19256,2.84544,0
41740,-0.155327,-1.19073,2.80996,0
41750,-0.125647,-1.18677,2.77295,0
41770,-0.0951506,-1.1823,2.73545,0
41790,-0.0665027,-1.17687,2.69898,0
41810,-0.0386106,-1.17093,2.66379,0
41830,-0.0112363,-1.16396,2.62948,0
41850,0.0174099,-1.15469,2.5944,0
41870,0.0433624,-1.14335,2.56225,0
41890,0.0628549,-1.13257,2.53575,0
41910,0.0785339,-1.12144,2.51262,0
41930,0.0921423,-1.10761,2.49185,0
41950,0.104556,-1.0929,2.47309,0
41970,0.116561,-1.07815,2.45517,0
41990,0.126231,-1.06199,2.43964,0
42010,0.131803,-1.04682,2.42723,0
42030,0.134669,-1.03393,2.41706,0
42050,0.136094,-1.02168,2.4084,0
42070,0.137332,-1.00928,2.40036,0
42090,0.137849,-0.997316,2.39205,0
42110,0.137885,-0.985745,2.38473,0
42130,0.135052,-0.975106,2.38111,0
42150,0.131396,-0.965532,2.3784,0
42170,0.127245,-0.955321,2.37552,0
42190,0.122542,-0.944659,2.37327,0
42210,0.116801,-0.93328,2.37184,0
42230,0.111517,-0.92072,2.37051,0
42250,0.106028,-0.908535,2.3693,0
42270,0.0984539,-0.89829,2.36986,0
42290,0.0903434,-0.889114,2.37169,0
42310,0.0827618,-0.880897,2.37274,0
42330,0.0760875,-0.872937,2.37332,0
42350,0.0685742,-0.864801,2.37559,0
42370,0.0597987,-0.857056,2.37826,0
42390,0.0498295,-0.848697,2.38024,0
42410,0.0380597,-0.839021,2.3839,0
42430,0.0240899,-0.830408,2.38913,0
42450,0.00645368,-0.824064,2.39617,0
42470,-0.0131565,-0.818913,2.40414,0
42490,-0.0302699,-0.813116,2.41095,0
42510,-0.0443425,-0.806873,2.41679,0
42530,-0.0592183,-0.800633,2.42375,0
42550,-0.0734136,-0.792132,2.42902,0
42570,-0.0895509,-0.783474,2.43358,0
42590,-0.105722,-0.774539,2.4375,0
42610,-0.117418,-0.763289,2.43896,0
42630,-0.125545,-0.749405,2.43992,0
42650,-0.13235,-0.736524,2.44063,0
42670,-0.142987,-0.725674,2.44305,0
42690,-0.155826,-0.715349,2.44642,0
42710,-0.167668,-0.704826,2.44895,0
42730,-0.179273,-0.694577,2.45249,0
42750,-0.192776,-0.684489,2.45794,0
42770,-0.208058,-0.675329,2.46366,0
42790,-0.224828,-0.667983,2.47048,0
42810,-0.240839,-0.661783,2.47858,0
42830,-0.254736,-0.656112,2.48746,0
42850,-0.266892,-0.650792,2.49583,0
42870,-0.279608,-0.645261,2.50473,0
42890,-0.293958,-0.640248,2.51432,0
42910,-0.308022,-0.634572,2.52307,0
42930,-0.319202,-0.6288,2.53163,0
42950,-0.329682,-0.623186,2.54168,0
42970,-0.340592,-0.617999,2.5524,0
42990,-0.35305,-0.614352,2.56447,0
43010,-0.36594,-0.611688,2.57782,0
43030,-0.379689,-0.609532,2.59296,0
43050,-0.393961,-0.608284,2.6089,0
43070,-0.408476,-0.607098,2.62603,0
43090,-0.424953,-0.606668,2.64447,0
43110,-0.44212,-0.607222,2.66365,0
43130,-0.457252,-0.607681,2.68335,0
43150,-0.471281,-0.608113,2.704,0
43170,-0.486409,-0.608854,2.72527,0
43190,-0.505504,-0.610736,2.74788,0
43210,-0.524426,-0.612652,2.77009,0
43230,-0.540643,-0.614184,2.7911,0
43250,-0.553806,-0.615346,2.81199,0
43270,-0.564926,-0.616569,2.83221,0
43290,-0.575331,-0.617094,2.85153,0
43310,-0.5862,-0.617429,2.87178,0
43330,-0.597287,-0.617769,2.8917,0
43350,-0.609064,-0.617881,2.91192,0
43370,-0.620512,-0.61849,2.93317,0
43390,-0.629918,-0.62017,2.95555,0
43410,-0.640395,-0.623401,2.97891,0
43430,-0.651859,-0.628136,3.00327,0
43450,-0.662137,-0.63474,3.02855,0
43470,-0.670351,-0.643921,3.05529,0
43490,-0.678181,-0.653885,3.08111,0
43510,-0.687087,-0.663311,3.10658,0
43530,-0.696819,-0.674442,3.13317,0
43550,-0.705356,-0.686605,-3.12415,0
43570,-0.712989,-0.69877,-3.09954,0
43590,-0.719768,-0.710733,-3.07606,0
43610,-0.725354,-0.722925,-3.05406,0
43630,-0.730698,-0.734963,-3.03148,0
43650,-0.738877,-0.74734,-3.00746,0
43670,-0.747013,-0.758827,-2.98423,0
43690,-0.755628,-0.770025,-2.95961,0
43710,-0.767842,-0.7828,-2.93241,0
43730,-0.782225,-0.79567,-2.9042,0
43750,-0.797559,-0.808477,-2.87638,0
43770,-0.81574,-0.820897,-2.84819,0
43790,-0.835103,-0.833069,-2.82088,0
43810,-0.852509,-0.844784,-2.79441,0
43830,-0.867765,-0.856313,-2.76826,0
43850,-0.882119,-0.868624,-2.74314,0
43870,-0.894219,-0.880748,-2.72006,0
43890,-0.904777,-0.893003,-2.69891,0
43910,-0.913885,-0.905765,-2.67914,0
43930,-0.922856,-0.91899,-2.65996,0
43950,-0.929704,-0.932358,-2.64265,0
43970,-0.936011,-0.945169,-2.62588,0
43990,-0.943228,-0.957725,-2.60984,0
44010,-0.948981,-0.971229,-2.59637,0
44030,-0.952975,-0.985302,-2.58408,0
44050,-0.959625,-0.998474,-2.57044,0
44070,-0.964192,-1.01197,-2.55982,0
44090,-0.965633,-1.02595,-2.55124,0
44110,-0.969042,-1.04042,-2.54245,0
44130,-0.972941,-1.05503,-2.53539,0
44150,-0.972652,-1.0686,-2.5324,0
44170,-0.970899,-1.08072,-2.5294,0
44190,-0.972011,-1.09392,-2.52348,0
44200,-0.974947,-1.10707,-2.51681,0
44220,-0.977287,-1.11952,-2.51154,1001
44240,-0.980433,-1.13104,-2.50646,0
44260,-0.98609,-1.14032,-2.50032,0
44280,-0.992247,-1.14879,-2.49455,0
44300,-0.998175,-1.15546,-2.48725,0
44320,-1.00442,-1.16062,-2.48077,0
44340,-1.01125,-1.16461,-2.47426,0
44360,-1.01732,-1.16765,-2.46853,0
44380,-1.02198,-1.17066,-2.4643,0
44400,-1.02555,-1.17289,-2.46128,0
44420,-1.02912,-1.17398,-2.45891,0
44440,-1.02902,-1.17391,-2.45847,0
44460,-1.0297,-1.17482,-2.45793,0
44480,-1.02995,-1.17519,-2.45775,0
44500,-1.0308,-1.17563,-2.45781,0
44520,-1.0291,-1.17565,-2.45981,0
44540,-1.02818,-1.17615,-2.46217,0
44560,-1.02554,-1.17607,-2.46548,0
44580,-1.02272,-1.17549,-2.46908,0
44600,-1.01955,-1.17494,-2.47418,0
44620,-1.01496,-1.17335,-2.48058,0
44640,-1.00983,-1.17095,-2.48808,0
44660,-1.00192,-1.16739,-2.49868,0
44680,-0.992321,-1.16164,-2.51087,0
44700,-0.983407,-1.15434,-2.52325,0
44720,-0.971436,-1.14559,-2.53995,0
44740,-0.946269,-1.13254,-2.57023,0
44760,-0.918106,-1.11435,-2.5991,0
44780,-0.894976,-1.09323,-2.62322,0
44800,-0.872453,-1.06879,-2.64941,0
44820,-0.847405,-1.03934,-2.67844,0
44840,-0.816598,-1.0054,-2.71037,0
44860,-0.78906,-0.968448,-2.74117,0
44880,-0.759209,-0.926671,-2.77378,0
44900,-0.722486,-0.87938,-2.80821,0
44920,-0.686006,-0.828921,-2.839,0
44940,-0.658399,-0.778895,-2.86501,0
44960,-0.630623,-0.725034,-2.89219,0
44980,-0.604287,-0.66672,-2.9147,0
45000,-0.584179,-0.611337,-2.93128,0
45020,-0.573952,-0.561226,-2.94172,0
45040,-0.571047,-0.513157,-2.9506,0
45060,-0.570589,-0.467094,-2.95674,0
45080,-0.571342,-0.426817,-2.95947,0
45100,-0.574143,-0.392476,-2.95801,0
45120,-0.57823,-0.363737,-2.95272,0
45140,-0.583167,-0.33896,-2.9467,0
45160,-0.58763,-0.317647,-2.94004,0
45180,-0.590882,-0.301899,-2.9322,0
45200,-0.591229,-0.290544,-2.92503,0
45220,-0.589842,-0.280281,-2.91808,0
45240,-0.588699,-0.271517,-2.91227,0
45260,-0.587148,-0.265111,-2.90862,0
45280,-0.586563,-0.26074,-2.9059,0
45300,-0.585863,-0.257632,-2.90307,1000
45320,-0.583818,-0.255329,-2.9008,0
45340,-0.581115,-0.253288,-2.89878,0
45360,-0.579512,-0.251929,-2.89626,0
45380,-0.579618,-0.250636,-2.89357,0
45400,-0.580552,-0.249639,-2.8917,0
45420,-0.580748,-0.248426,-2.89072,0
45440,-0.580436,-0.247516,-2.89016,0
45460,-0.578933,-0.247682,-2.88934,0
45480,-0.577231,-0.247994,-2.88899,0
45500,-0.575413,-0.24844,-2.88953,0
45520,-0.574037,-0.249073,-2.88995,0
45540,-0.572557,-0.250392,-2.89002,0
45560,-0.569956,-0.251006,-2.88999,0
45580,-0.566677,-0.251102,-2.88973,0
45600,-0.564376,-0.251394,-2.8891,0
45620,-0.564336,-0.252593,-2.88825,0
45640,-0.564406,-0.253762,-2.88735,0
45660,-0.56143,-0.254001,-2.88626,0
45680,-0.556966,-0.253797,-2.88496,0
45700,-0.554861,-0.255235,-2.88283,0
45720,-0.554217,-0.256767,-2.88057,0
45740,-0.552707,-0.258305,-2.87804,0
45760,-0.550721,-0.259151,-2.87465,0
45780,-0.549406,-0.259534,-2.87124,0
45800,-0.548367,-0.259843,-2.8671,0
45820,-0.546902,-0.260846,-2.86246,0
45840,-0.545566,-0.261873,-2.85695,0
45860,-0.543443,-0.263482,-2.8508,0
45880,-0.540578,-0.265675,-2.84449,0
45900,-0.536264,-0.268395,-2.83748,0
45920,-0.532013,-0.272757,-2.83066,0
45940,-0.528189,-0.277952,-2.8241,0
45960,-0.52426,-0.28424,-2.81653,0
45980,-0.520506,-0.291234,-2.80854,0
46000,-0.517703,-0.297977,-2.80094,0
46020,-0.515464,-0.304756,-2.79418,0
46040,-0.512027,-0.312031,-2.7882,0
46060,-0.507323,-0.318688,-2.78252,0
46080,-0.501753,-0.324877,-2.77754,0
46100,-0.496713,-0.331218,-2.77283,0
46120,-0.493009,-0.337817,-2.76828,0
46130,-0.490691,-0.344451,-2.7641,0
46150,-0.488508,-0.350755,-2.76022,0
46170,-0.48618,-0.356315,-2.75636,0
46190,-0.483078,-0.362181,-2.75277,0
46210,-0.480569,-0.368131,-2.7498,0
46230,-0.47804,-0.374432,-2.74664,0
46250,-0.474199,-0.381443,-2.74391,0
46270,-0.469666,-0.388561,-2.74167,0
46290,-0.465746,-0.394824,-2.74025,0
46310,-0.46319,-0.401135,-2.74016,0
46330,-0.459119,-0.406931,-2.74156,0
46350,-0.453512,-0.412111,-2.74271,0
46370,-0.446608,-0.417798,-2.74486,0
46390,-0.440736,-0.423767,-2.74878,0
46410,-0.436068,-0.4295,-2.75326,0
46430,-0.429491,-0.43587,-2.75913,0
46450,-0.421452,-0.443182,-2.76493,0
46470,-0.413384,-0.450975,-2.7707,0
46490,-0.404992,-0.458688,-2.7778,0
46510,-0.39689,-0.466582,-2.78579,0
46530,-0.389754,-0.473897,-2.79383,0
46550,-0.383106,-0.481628,-2.80178,0
46570,-0.376438,-0.488912,-2.80911,0
46590,-0.370172,-0.495653,-2.81682,0
46610,-0.363595,-0.501801,-2.82595,0
46630,-0.35783,-0.507172,-2.83547,0
46650,-0.353334,-0.512525,-2.84591,0
46670,-0.348595,-0.517353,-2.85663,0
46690,-0.344272,-0.522878,-2.86807,0
46710,-0.338196,-0.528507,-2.88142,0
46730,-0.331928,-0.533781,-2.89635,0
46750,-0.325428,-0.538605,-2.91151,0
46770,-0.320737,-0.543215,-2.92607,0
46790,-0.316588,-0.548533,-2.94011,0
46810,-0.312163,-0.554657,-2.95533,0
46830,-0.306996,-0.561165,-2.97163,0
46850,-0.301021,-0.567205,-2.98845,0
46870,-0.295111,-0.573176,-3.00518,0
46890,-0.28937,-0.579356,-3.02235,0
46910,-0.284005,-0.585272,-3.03966,0
46930,-0.28044,-0.590186,-3.05593,0
46950,-0.277433,-0.595299,-3.07155,0
46970,-0.273109,-0.600598,-3.08876,0
46990,-0.268442,-0.605258,-3.10578,0
47010,-0.264121,-0.609889,-3.12238,0
47030,-0.259891,-0.614899,-3.13932,0
47050,-0.255185,-0.620377,3.12601,0
47070,-0.249756,-0.625484,3.10859,0
47090,-0.244099,-0.631168,3.09112,0
47110,-0.238981,-0.637626,3.07358,0
47130,-0.233487,-0.644234,3.05561,0
47150,-0.2269,-0.650907,3.03784,0
47170,-0.220149,-0.657537,3.01993,0
47190,-0.214008,-0.664062,3.00186,0
47210,-0.206735,-0.669551,2.98258,0
47230,-0.198019,-0.673715,2.96263,0
47250,-0.189554,-0.677289,2.94279,0
47270,-0.18119,-0.680034,2.92289,0
47290,-0.172862,-0.681436,2.90366,0
47310,-0.163599,-0.6827,2.88368,0
47330,-0.152119,-0.683948,2.86194,0
47350,-0.141715,-0.684451,2.8416,0
47370,-0.132599,-0.684483,2.82408,0
47390,-0.122888,-0.684914,2.80579,0
47410,-0.111916,-0.684961,2.78528,0
47430,-0.102897,-0.684367,2.76629,0
47450,-0.0950568,-0.683699,2.74988,0
47470,-0.0868073,-0.683205,2.73428,0
47490,-0.0773,-0.68209,2.71777,0
47510,-0.0677216,-0.680416,2.70222,0
47530,-0.0580332,-0.677157,2.68568,0
47550,-0.0472964,-0.669989,2.67029,0
47570,-0.0362455,-0.664195,2.65774,0
47590,-0.0283348,-0.660033,2.64832,0
47610,-0.0224129,-0.656956,2.6384,0
47630,-0.017427,-0.653501,2.62813,0
47650,-0.0127741,-0.649544,2.61753,0
47670,-0.00806441,-0.646363,2.60807,0
47690,-0.00255245,-0.644151,2.59973,0
47710,0.00446428,-0.641234,2.59027,0
47730,0.0119022,-0.637492,2.58111,0
47750,0.0167922,-0.633469,2.57331,0
47770,0.0205121,-0.629528,2.56575,0
47790,0.0229676,-0.624979,2.56018,0
47810,0.0237221,-0.620471,2.55694,0
47830,0.0246222,-0.615881,2.55438,0
47850,0.0265993,-0.611783,2.55137,0
47870,0.0300255,-0.606876,2.54802,0
47890,0.0333958,-0.600729,2.54525,0
47910,0.0328328,-0.595732,2.54417,0
47930,0.0300389,-0.591944,2.54425,0
47950,0.027319,-0.5884,2.54515,0
47970,0.02655,-0.584384,2.54489,0
47990,0.0260535,-0.580353,2.54547,0
48010,0.0223743,-0.577598,2.55043,0
48030,0.0186683,-0.577522,2.55826,0
48050,0.0178679,-0.578297,2.56528,0
48070,0.0174265,-0.577038,2.57127,0
48090,0.0137448,-0.573527,2.57705,0
48110,0.0048449,-0.569614,2.58365,0
48130,-0.00507316,-0.565001,2.59002,0
48150,-0.0112575,-0.55772,2.59524,0
48170,-0.0164849,-0.549241,2.60078,0
48190,-0.0232828,-0.540906,2.60667,0
48210,-0.0291746,-0.532964,2.6113,0
48230,-0.0342741,-0.524666,2.61573,0
48250,-0.0412723,-0.516198,2.62043,0
48270,-0.0489085,-0.508409,2.62549,0
48290,-0.0553692,-0.500629,2.63029,0
48310,-0.061124,-0.493152,2.63484,0
48330,-0.0656064,-0.487175,2.63909,0
48350,-0.0704739,-0.482273,2.64404,0
48370,-0.0761177,-0.476862,2.64969,0
48390,-0.0851216,-0.471323,2.6559,0
48410,-0.09332,-0.466068,2.6608,0
48430,-0.0976947,-0.459659,2.66496,0
48450,-0.101963,-0.453158,2.66988,0
48470,-0.106963,-0.446321,2.67443,0
48490,-0.113457,-0.439609,2.67904,0
48510,-0.121081,-0.434338,2.68462,0
48530,-0.128323,-0.430016,2.6908,0
48550,-0.134741,-0.425111,2.69695,0
48570,-0.141303,-0.418413,2.70213,0
48590,-0.146131,-0.410372,2.70715,0
48610,-0.150707,-0.403162,2.71262,0
48630,-0.155514,-0.39746,2.71847,0
48650,-0.160188,-0.389323,2.72401,0
48670,-0.168784,-0.380439,2.73025,0
48690,-0.17938,-0.374639,2.73775,0
48710,-0.186893,-0.369403,2.74469,0
48730,-0.191143,-0.363164,2.75107,0
48750,-0.194984,-0.35824,2.75904,0
48770,-0.198047,-0.355002,2.76738,0
48790,-0.200277,-0.351919,2.77487,0
48810,-0.203721,-0.348881,2.78297,0
48830,-0.207606,-0.345835,2.79161,0
48850,-0.210979,-0.343018,2.8006,0
48870,-0.214498,-0.340481,2.81105,0
48890,-0.219165,-0.33899,2.82267,0
48910,-0.225167,-0.338813,2.83521,0
48930,-0.231003,-0.337818,2.84679,0
48950,-0.236958,-0.33621,2.85878,0
48970,-0.2426,-0.336141,2.87164,0
48990,-0.247404,-0.33599,2.88386,0
49010,-0.252692,-0.335308,2.8956,0
49030,-0.258804,-0.335406,2.90751,0
49050,-0.263253,-0.335727,2.91856,0
49070,-0.267328,-0.33586,2.93029,0
49090,-0.270358,-0.335778,2.94159,0
49110,-0.275015,-0.336438,2.95397,0
49130,-0.281582,-0.337966,2.96753,0
49150,-0.290777,-0.339633,2.9808,0
49170,-0.300343,-0.341121,2.9931,0
49190,-0.309658,-0.342301,3.00586,0
49210,-0.317397,-0.34344,3.01887,0
49230,-0.323803,-0.346113,3.03218,0
49250,-0.328501,-0.350423,3.04573,0
49270,-0.332528,-0.354356,3.05939,0
49290,-0.337353,-0.35814,3.07345,0
49310,-0.343926,-0.363069,3.08842,0
49330,-0.350923,-0.370122,3.10378,0
49350,-0.357383,-0.377874,3.11923,0
49370,-0.362823,-0.385118,3.13536,0
49390,-0.368729,-0.392676,-3.13146,0
49410,-0.373908,-0.401119,-3.11539,0
49430,-0.378522,-0.410048,-3.09875,0
49450,-0.383166,-0.419132,-3.08109,0
49470,-0.389137,-0.42801,-3.06297,0
49490,-0.394914,-0.436488,-3.04639,0
49510,-0.401361,-0.44458,-3.02926,0
49530,-0.408787,-0.452495,-3.01146,0
49540,-0.416533,-0.460172,-2.99348,0
49560,-0.423343,-0.468254,-2.97567,0
49580,-0.428752,-0.476307,-2.95816,0
49600,-0.434482,-0.483934,-2.94077,0
49620,-0.440423,-0.491949,-2.9235,0
49640,-0.445221,-0.500565,-2.90686,0
49660,-0.450574,-0.508828,-2.89002,0
49680,-0.456245,-0.517031,-2.87307,0
49700,-0.461063,-0.525106,-2.85701,0
49720,-0.465387,-0.532653,-2.84197,0
49740,-0.471427,-0.539704,-2.82655,0
49760,-0.478946,-0.547413,-2.81117,0
49780,-0.484509,-0.554211,-2.79714,0
49800,-0.489602,-0.560437,-2.78385,0
49820,-0.495066,-0.56744,-2.77144,0
49840,-0.499316,-0.575183,-2.76052,0
49860,-0.501738,-0.58379,-2.7506,0
49880,-0.50285,-0.592014,-2.74253,0
49900,-0.503812,-0.599815,-2.735,0
49920,-0.507549,-0.609022,-2.72636,0
49940,-0.511227,-0.618993,-2.71777,0
49960,-0.513422,-0.628644,-2.71157,0
49980,-0.515986,-0.638047,-2.70599,0
50000,-0.520773,-0.648371,-2.6989,0
50020,-0.524225,-0.65882,-2.69188,0
50040,-0.525688,-0.669872,-2.68554,0
50060,-0.526803,-0.682074,-2.68111,0
50080,-0.529382,-0.694456,-2.67816,0
50100,-0.53175,-0.706629,-2.67551,0
50120,-0.531002,-0.71902,-2.67511,0
50140,-0.52809,-0.731548,-2.67671,0
50160,-0.527098,-0.744175,-2.6793,0
50180,-0.524961,-0.755004,-2.68388,0
50200,-0.51991,-0.765772,-2.69065,0
50220,-0.515051,-0.777145,-2.69679,0
50240,-0.511022,-0.788166,-2.70447,0
50260,-0.505854,-0.799463,-2.71338,0
50280,-0.500326,-0.811175,-2.72161,0
50300,-0.494877,-0.823334,-2.73054,0
50320,-0.491165,-0.834236,-2.73785,0
50340,-0.48637,-0.845905,-2.74685,0
50360,-0.479208,-0.857276,-2.75831,0
50380,-0.473226,-0.868439,-2.77014,0
50400,-0.469076,-0.877901,-2.7811,0
50420,-0.464493,-0.887461,-2.79317,0
50440,-0.458747,-0.896306,-2.8063,0
50460,-0.453513,-0.905791,-2.82021,0
50480,-0.447101,-0.915202,-2.83594,0
50500,-0.442026,-0.924622,-2.85076,0
50520,-0.437453,-0.934278,-2.86549,0
50540,-0.430174,-0.944627,-2.88237,0
50560,-0.41981,-0.954732,-2.90206,0
50580,-0.410043,-0.965043,-2.92181,0
50600,-0.399659,-0.975859,-2.94232,0
50620,-0.389037,-0.986816,-2.96343,0
50640,-0.377614,-0.997572,-2.9852,0
50660,-0.365003,-1.00811,-3.00836,0
50680,-0.352374,-1.01875,-3.03179,0
50700,-0.336851,-1.02932,-3.05857,0
50720,-0.317505,-1.04007,-3.08936,0
50740,-0.295692,-1.04971,-3.12196,0
50760,-0.276385,-1.05832,3.13169,0
50780,-0.248666,-1.0661,3.09379,0
50800,-0.223631,-1.07319,3.05793,0
50820,-0.205986,-1.07965,3.02828,0
50840,-0.187999,-1.08525,3.0006,0
50860,-0.167685,-1.09057,2.97203,0
50880,-0.149119,-1.09556,2.94474,0
50900,-0.13242,-1.09953,2.9181,0
50920,-0.113356,-1.10184,2.88972,0
50940,-0.0940294,-1.10251,2.86221,0
50960,-0.0750335,-1.10252,2.83516,0
50980,-0.0572567,-1.10155,2.80967,0
51000,-0.0383101,-1.09946,2.78333,0
51020,-0.0183988,-1.09649,2.75653,0
51040,0.000939744,-1.09271,2.73071,0
51060,0.0192375,-1.08814,2.7064,0
51080,0.0423814,-1.0797,2.67732,0
51100,0.0628162,-1.07004,2.65221,0
51120,0.0793229,-1.06122,2.63021,0
51140,0.0936438,-1.05339,2.61152,0
51160,0.108021,-1.04565,2.59323,0
51180,0.120837,-1.03689,2.57674,0
51200,0.134291,-1.02668,2.56029,0
51220,0.148381,-1.01469,2.54376,0
51240,0.160319,-1.00112,2.52886,0
51260,0.167019,-0.987277,2.51788,0
51280,0.174567,-0.97295,2.50517,0
51300,0.182191,-0.958764,2.49465,0
51320,0.186429,-0.946389,2.4882,0
51340,0.191908,-0.93348,2.48123,0
51360,0.198273,-0.920365,2.47357,0
51380,0.200252,-0.909378,2.46966,0
51400,0.1991,-0.901703,2.46822,0
51420,0.197605,-0.896529,2.46974,0
51440,0.198281,-0.892468,2.47031,0
51460,0.200157,-0.888083,2.4702,0
51480,0.200618,-0.883367,2.47159,0
51500,0.20131,-0.878193,2.47321,0
51510,0.203409,-0.872544,2.47455,0
51530,0.204555,-0.865833,2.47548,0
51550,0.203381,-0.859679,2.47655,0
51570,0.20143,-0.854395,2.4769,0
51590,0.200593,-0.849949,2.478,0
51610,0.202083,-0.845363,2.47909,0
51630,0.204545,-0.839737,2.4785,0
51650,0.205196,-0.833325,2.47731,0
51670,0.202212,-0.827278,2.47813,0
51690,0.19763,-0.822225,2.48022,0
51710,0.193313,-0.817009,2.4823,0
51730,0.190637,-0.80979,2.48151,0
51750,0.188191,-0.801989,2.48035,0
51770,0.185515,-0.79848,2.48283,0
51790,0.185725,-0.796992,2.48725,0
51810,0.187392,-0.793962,2.49068,0
51830,0.186347,-0.789898,2.49274,0
51850,0.182211,-0.787056,2.49569,0
51870,0.176559,-0.783548,2.5006,0
51890,0.171372,-0.778484,2.50577,0
51910,0.166186,-0.772983,2.51063,0
51930,0.161102,-0.767547,2.51482,0
51950,0.156408,-0.762027,2.51807,0
51970,0.152143,-0.756095,2.52098,0
51990,0.145717,-0.74969,2.52556,0
52010,0.138122,-0.741854,2.5296,0
52030,0.130851,-0.732971,2.53235,0
52050,0.124419,-0.724408,2.53544,0
52070,0.120658,-0.715521,2.53755,0
52090,0.119332,-0.704299,2.53838,0
52110,0.11609,-0.694424,2.53971,0
52130,0.113789,-0.687768,2.54149,0
52150,0.113405,-0.681968,2.5443,0
52170,0.113754,-0.675689,2.54808,0
52190,0.113543,-0.670278,2.55164,0
52210,0.11514,-0.665259,2.55499,0
52230,0.116278,-0.660007,2.55952,0
52250,0.116627,-0.655646,2.56368,0
52270,0.114744,-0.651104,2.56799,0
52290,0.109014,-0.646014,2.57299,0
52310,0.101542,-0.64143,2.57931,0
52330,0.0946962,-0.637542,2.58729,0
52350,0.0898591,-0.632567,2.59522,0
52370,0.0849142,-0.626813,2.60296,0
52390,0.0784577,-0.62117,2.61115,0
52410,0.071001,-0.615749,2.61954,0
52430,0.0653108,-0.609953,2.6269,0
52450,0.0614878,-0.603103,2.63427,0
52470,0.0561029,-0.597335,2.64352,0
52490,0.0500814,-0.59164,2.65262,0
52510,0.0468915,-0.587378,2.6607,0
52530,0.0424856,-0.583839,2.67094,0
52550,0.0347486,-0.580453,2.68208,0
52570,0.0250646,-0.576674,2.69136,0
52590,0.0158291,-0.573118,2.70035,0
52610,0.00625678,-0.570996,2.71174,0
52630,-0.00227823,-0.569533,2.72337,0
52650,-0.010319,-0.566907,2.73392,0
52670,-0.0190969,-0.563725,2.74408,0
52690,-0.0282871,-0.562419,2.75491,0
52710,-0.0373865,-0.560502,2.76645,0
52730,-0.046631,-0.558304,2.7785,0
52750,-0.0561103,-0.557057,2.79119,0
52770,-0.0686712,-0.556502,2.80571,0
52790,-0.0814563,-0.556047,2.81933,0
52810,-0.0923174,-0.556752,2.83228,0
52830,-0.102509,-0.558145,2.84547,0
52850,-0.114077,-0.558706,2.85901,0
52870,-0.127913,-0.559453,2.87292,0
52890,-0.13934,-0.561224,2.88596,0
52910,-0.148408,-0.563127,2.89835,0
52930,-0.157113,-0.564477,2.91102,0
52950,-0.166371,-0.56648,2.9235,0
52970,-0.174938,-0.569891,2.93605,0
52990,-0.182867,-0.573016,2.94931,0
53010,-0.192126,-0.576327,2.96391,0
53030,-0.201527,-0.579726,2.97835,0
53050,-0.211876,-0.583278,2.99274,0
53070,-0.222987,-0.586557,3.00686,0
53090,-0.236004,-0.590016,3.02201,0
53110,-0.248928,-0.59328,3.03783,0
53130,-0.260398,-0.596383,3.05286,0
53150,-0.270505,-0.599829,3.06746,0
53170,-0.280695,-0.603671,3.08245,0
53190,-0.292358,-0.6078,3.09814,0
53210,-0.304294,-0.611743,3.11358,0
53230,-0.316098,-0.615214,3.12926,0
53250,-0.327085,-0.619077,-3.138,0
53270,-0.337186,-0.62417,-3.12126,0
53290,-0.346348,-0.629812,-3.10439,0
53310,-0.356802,-0.635014,-3.08824,0
53330,-0.36866,-0.641003,-3.0724,0
53350,-0.380421,-0.647324,-3.0559,0
53370,-0.391058,-0.652858,-3.0394,0
53390,-0.402554,-0.658016,-3.02336,0
53410,-0.413891,-0.663419,-3.00784,0
53430,-0.424768,-0.668245,-2.99306,0
53450,-0.434154,-0.672273,-2.97942,0
53470,-0.442156,-0.676489,-2.96629,0
53490,-0.449114,-0.681533,-2.9534,0
53510,-0.455031,-0.68707,-2.94097,0
53530,-0.461127,-0.692959,-2.92821,0
53550,-0.469125,-0.699032,-2.91537,0
53570,-0.478073,-0.705116,-2.90237,0
53590,-0.486074,-0.711095,-2.88916,0
53610,-0.494176,-0.717543,-2.87518,0
53630,-0.504303,-0.724644,-2.85981,0
53650,-0.515693,-0.731243,-2.844,0
53670,-0.526891,-0.737106,-2.82848,0
53690,-0.538261,-0.744187,-2.81284,0
53710,-0.549571,-0.75193,-2.79678,0
53730,-0.559354,-0.760518,-2.78051,0
53750,-0.566717,-0.769571,-2.76637,0
53770,-0.574757,-0.779696,-2.7521,0
53790,-0.583227,-0.790328,-2.73785,0
53810,-0.589602,-0.800232,-2.72531,0
53830,-0.595086,-0.81032,-2.71366,0
53850,-0.600384,-0.820771,-2.70249,0
53870,-0.604673,-0.830536,-2.69307,0
53890,-0.607005,-0.839285,-2.6852,0
53910,-0.608738,-0.848273,-2.67721,0
53930,-0.61021,-0.857379,-2.67157,0
53950,-0.610801,-0.866658,-2.66799,0
53970,-0.61067,-0.876443,-2.66447,0
53990,-0.612597,-0.887192,-2.65878,0
54010,-0.614594,-0.898305,-2.65328,0
54030,-0.614775,-0.908961,-2.64942,0
54050,-0.615313,-0.920298,-2.64596,0
54070,-0.617149,-0.931669,-2.64153,0
54090,-0.619079,-0.944038,-2.63705,0
54110,-0.616954,-0.956547,-2.63697,0
54130,-0.615995,-0.968666,-2.63626,0
54150,-0.615847,-0.980735,-2.63465,0
54170,-0.614951,-0.994235,-2.63337,0
54190,-0.618034,-1.00772,-2.62955,0
54210,-0.621851,-1.02091,-2.62583,0
54230,-0.624299,-1.03447,-2.62397,0
54250,-0.623479,-1.04779,-2.6253,0
54270,-0.621448,-1.06031,-2.62755,0
54290,-0.622877,-1.07354,-2.62671,0
54310,-0.62243,-1.08709,-2.62872,0
54330,-0.618865,-1.09968,-2.63484,0
54350,-0.612473,-1.11225,-2.6432,0
54370,-0.61016,-1.12438,-2.64752,0
54390,-0.611915,-1.13697,-2.64853,0
54410,-0.61464,-1.15018,-2.64867,0
54430,-0.616909,-1.16412,-2.64915,0
54450,-0.619605,-1.17745,-2.64923,0
54470,-0.62237,-1.19084,-2.65028,0
54490,-0.624714,-1.20413,-2.65299,0
54510,-0.625254,-1.21683,-2.65743,0
54530,-0.619982,-1.22923,-2.66777,0
54550,-0.607521,-1.24082,-2.68483,0
54570,-0.589374,-1.25226,-2.70793,0
54590,-0.571542,-1.26364,-2.73031,0
54610,-0.553827,-1.27467,-2.75269,0
54630,-0.538894,-1.28475,-2.77278,0
54650,-0.522397,-1.29429,-2.79545,0
54670,-0.504054,-1.30392,-2.82014,0
54690,-0.484438,-1.31213,-2.84579,0
54710,-0.465254,-1.31898,-2.87168,0
54730,-0.44273,-1.3259,-2.90284,0
54750,-0.411222,-1.33087,-2.9423,0
54770,-0.376546,-1.3348,-2.98391,0
54790,-0.338875,-1.3379,-3.02884,0
54810,-0.299546,-1.34038,-3.07617,0
54830,-0.257944,-1.34152,-3.12572,0
54850,-0.217087,-1.3425,3.1084,0
54870,-0.174249,-1.34279,3.05773,0
54880,-0.128201,-1.34217,3.00418,0
54900,-0.0804729,-1.3407,2.94898,0
54920,-0.0354553,-1.33744,2.89619,0
54940,0.00943719,-1.33316,2.84385,0
54960,0.0546432,-1.32761,2.79228,0
54980,0.0949337,-1.32085,2.74527,0
55000,0.13554,-1.31278,2.69813,0
55020,0.172137,-1.30297,2.65519,0
55040,0.200617,-1.29216,2.62052,0
55060,0.227033,-1.27996,2.58753,0
55080,0.253509,-1.2662,2.55536,0
55100,0.276543,-1.25181,2.52681,0
55120,0.297262,-1.23652,2.50061,0
55140,0.31599,-1.22104,2.47735,0
55160,0.332614,-1.20622,2.45622,0
55180,0.346906,-1.19215,2.43775,0
55200,0.36203,-1.17761,2.41858,0
55220,0.376534,-1.16186,2.40055,0
55240,0.387212,-1.14705,2.38642,0
55260,0.396595,-1.13339,2.37379,0
55280,0.407604,-1.11863,2.36088,0
55300,0.415734,-1.10242,2.34947,0
55320,0.418125,-1.08785,2.34099,0
55340,0.416977,-1.07519,2.3365,0
55360,0.416293,-1.06406,2.33367,0
55380,0.418736,-1.05291,2.32902,0
55400,0.420678,-1.04135,2.32435,0
55420,0.417431,-1.03131,2.3231,0
55440,0.413469,-1.02262,2.32236,0
55460,0.409574,-1.01423,2.32225,0
55480,0.4052,-1.00559,2.32229,0
55500,0.40033,-0.996195,2.32277,0
55520,0.394155,-0.98647,2.32397,0
55540,0.387527,-0.977648,2.32592,0
55560,0.380592,-0.96945,2.32871,0
55580,0.374484,-0.959827,2.33001,0
55600,0.366065,-0.950386,2.33278,0
55620,0.354671,-0.94274,2.33785,0
55640,0.343308,-0.93648,2.34387,0
55660,0.332852,-0.930136,2.34894,0
55680,0.321748,-0.924122,2.35466,0
55700,0.309761,-0.918289,2.36072,0
55720,0.297752,-0.912486,2.36615,0
55740,0.284997,-0.906308,2.37224,0
55760,0.270914,-0.899716,2.3785,0
55780,0.2565,-0.891952,2.38431,0
55800,0.242804,-0.884234,2.38987,0
55820,0.228002,-0.877496,2.39658,0
55840,0.213486,-0.871532,2.40357,0
55860,0.200615,-0.865045,2.40937,0
55880,0.18839,-0.858426,2.41449,0
55900,0.175211,-0.852627,2.42067,0
55920,0.16098,-0.847173,2.42798,0
55940,0.146589,-0.841526,2.43574,0
55960,0.132603,-0.835475,2.4431,0
55980,0.11766,-0.830765,2.45174,0
56000,0.103457,-0.826439,2.46115,0
56020,0.0897513,-0.820754,2.47006,0
56040,0.0741025,-0.815743,2.48006,0
56060,0.0568029,-0.811442,2.49084,0
56080,0.0411738,-0.806697,2.50155,0
56100,0.0258945,-0.802379,2.513,0
56120,0.0113365,-0.798104,2.52402,0
56140,-0.00274172,-0.794508,2.53465,0
56160,-0.0324388,-0.788836,2.55792,0
56180,-0.0459509,-0.7858,2.56884,0
56200,-0.0599144,-0.783715,2.57998,0
56220,-0.0728549,-0.782209,2.59117,0
56240,-0.0849273,-0.78089,2.60249,0
56260,-0.0965415,-0.779262,2.61325,0
56280,-0.108442,-0.777705,2.62385,0
56300,-0.12111,-0.775539,2.63439,0
56320,-0.134081,-0.772549,2.64465,0
56340,-0.14666,-0.768897,2.65475,0
56360,-0.159416,-0.765123,2.66506,0
56380,-0.171569,-0.760848,2.67478,0
56400,-0.18358,-0.756348,2.6842,0
56420,-0.196971,-0.752194,2.69403,0
56440,-0.211457,-0.747722,2.70391,0
56460,-0.225743,-0.743107,2.71303,0
56480,-0.238855,-0.739226,2.72208,0
56500,-0.250988,-0.735412,2.73125,0
56520,-0.262136,-0.731238,2.73996,0
56540,-0.272754,-0.727115,2.74813,0
56560,-0.283674,-0.723214,2.75663,0
56580,-0.295964,-0.719315,2.76531,0
56600,-0.307972,-0.715099,2.77243,0
56620,-0.319721,-0.710135,2.77912,0
56640,-0.332327,-0.705257,2.78528,0
56660,-0.344104,-0.699552,2.79004,0
56680,-0.355078,-0.693296,2.79397,0
56700,-0.364534,-0.6874,2.79764,0
56720,-0.373008,-0.681936,2.80107,0
56740,-0.381805,-0.676669,2.80442,0
56760,-0.391149,-0.671542,2.80742,0
56780,-0.400908,-0.666543,2.81061,0
56800,-0.411153,-0.662427,2.81484,0
56810,-0.421825,-0.658705,2.81934,0
56830,-0.432406,-0.655252,2.82368,0
56850,-0.44238,-0.652503,2.82855,0
56870,-0.451777,-0.649813,2.83421,0
56890,-0.461722,-0.647825,2.84055,0
56910,-0.471798,-0.645996,2.84703,0
56930,-0.482421,-0.644604,2.85457,0
56950,-0.492886,-0.644071,2.86305,0
56970,-0.503697,-0.644002,2.87229,0
56990,-0.514748,-0.644213,2.88203,0
57010,-0.52642,-0.644647,2.89233,0
57030,-0.537426,-0.645079,2.90312,0
57050,-0.5473,-0.645985,2.91452,0
57070,-0.556207,-0.646727,2.92588,0
57090,-0.566376,-0.647637,2.93727,0
57110,-0.576815,-0.648936,2.94902,0
57130,-0.586588,-0.6503,2.96157,0
57150,-0.595912,-0.652095,2.97414,0
57170,-0.605677,-0.65366,2.98723,0
57210,-0.659832,-0.670618,3.06498,0
57230,-0.671795,-0.675708,3.08229,0
57250,-0.683585,-0.681028,3.09976,0
57270,-0.691799,-0.686963,3.11619,0
57280,-0.698756,-0.692649,3.13303,0
57290,-0.705562,-0.69868,-3.13358,0
57310,-0.715334,-0.704838,-3.11594,0
57330,-0.727819,-0.711321,-3.09859,0
57360,-0.756936,-0.722211,-3.06093,0
57380,-0.773795,-0.727327,-3.04021,0
57400,-0.791192,-0.733863,-3.01892,0
57420,-0.807817,-0.740186,-2.99729,0
57440,-0.823681,-0.746248,-2.97508,0
57460,-0.838228,-0.752597,-2.95343,0
57480,-0.852307,-0.758764,-2.93235,0
57500,-0.866355,-0.764627,-2.91212,0
57520,-0.881196,-0.771124,-2.89269,0
57540,-0.893308,-0.777779,-2.87409,0
57560,-0.902293,-0.783566,-2.85578,0
57580,-0.911739,-0.790262,-2.83811,0
57600,-0.921573,-0.798579,-2.82081,0
57620,-0.928768,-0.807096,-2.80416,0
57640,-0.934756,-0.814782,-2.78771,0
57660,-0.940165,-0.822116,-2.77284,0
57680,-0.944641,-0.829765,-2.75928,0
57700,-0.95131,-0.837115,-2.74623,0
57720,-0.959515,-0.844234,-2.73175,0
57740,-0.962776,-0.850415,-2.71852,0
57760,-0.965584,-0.856944,-2.70597,0
57780,-0.971893,-0.86554,-2.69365,0
57800,-0.97965,-0.873754,-2.68245,0
57820,-0.98604,-0.882318,-2.67272,0
57840,-0.987758,-0.891197,-2.66213,0
57860,-0.989351,-0.901611,-2.65136,0
57880,-0.992812,-0.913605,-2.64066,0
57900,-0.996449,-0.925706,-2.63068,0
57920,-0.998011,-0.938196,-2.62009,0
57940,-0.999329,-0.950447,-2.60777,0
57960,-1.00349,-0.962764,-2.59433,0
57980,-1.01155,-0.975071,-2.58028,0
58000,-1.02347,-0.986053,-2.56402,0
58020,-1.03923,-0.996245,-2.5467,0
58040,-1.05128,-1.00571,-2.53078,0
58060,-1.06021,-1.01562,-2.51625,0
58080,-1.07068,-1.02566,-2.50079,0
58100,-1.08481,-1.0355,-2.48321,0
58120,-1.09818,-1.04543,-2.46742,0
58140,-1.1102,-1.05377,-2.45127,0
58160,-1.12426,-1.06142,-2.43162,0
58180,-1.14235,-1.06946,-2.40976,0
58200,-1.16052,-1.0763,-2.38814,1001
58220,-1.1787,-1.0817,-2.36642,0
58240,-1.19883,-1.08654,-2.3443,0
58260,-1.22177,-1.09055,-2.32186,0
58280,-1.24243,-1.09338,-2.3002,0
58300,-1.26358,-1.09522,-2.27811,0
58320,-1.28347,-1.09568,-2.25757,0
58340,-1.30174,-1.0957,-2.23857,0
58360,-1.31906,-1.09478,-2.21986,0
58380,-1.33561,-1.09427,-2.20336,0
58400,-1.34974,-1.09362,-2.18913,0
58420,-1.36071,-1.09318,-2.17812,0
58440,-1.36786,-1.09229,-2.17044,0
58460,-1.37176,-1.09047,-2.16716,0
58480,-1.37229,-1.08825,-2.16763,0
58500,-1.36935,-1.08595,-2.17241,0
58520,-1.36153,-1.08271,-2.18333,0
58540,-1.34995,-1.07831,-2.19868,0
58560,-1.33448,-1.07317,-2.21866,0
58580,-1.31455,-1.06683,-2.24355,0
58600,-1.28794,-1.0594,-2.27603,0
58620,-1.25476,-1.04782,-2.3168,0
58640,-1.21873,-1.03191,-2.35988,0
58660,-1.17877,-1.01209,-2.40537,0
58680,-1.13886,-0.988314,-2.45279,0
58700,-1.09817,-0.959476,-2.50205,0
58720,-1.05782,-0.924701,-2.55019,0
58740,-1.01365,-0.884147,-2.59916,0
58760,-0.964383,-0.839342,-2.64707,0
58780,-0.921572,-0.790562,-2.68918,0
58800,-0.89377,-0.739137,-2.72462,0
58820,-0.869267,-0.689783,-2.75574,0
58840,-0.846883,-0.644739,-2.78086,0
58860,-0.826129,-0.603106,-2.79871,0
58880,-0.803277,-0.561885,-2.81206,0
58900,-0.777774,-0.522371,-2.82236,0
58920,-0.752607,-0.487872,-2.83049,0
58940,-0.730286,-0.459521,-2.83596,0
58960,-0.713586,-0.435613,-2.8377,0
58980,-0.699194,-0.413966,-2.8366,0
59000,-0.688287,-0.395138,-2.83361,0
59020,-0.680629,-0.380829,-2.82874,0
59040,-0.671518,-0.370206,-2.82286,0
59060,-0.661409,-0.359099,-2.81655,0
59080,-0.652563,-0.347794,-2.81045,0
59100,-0.646061,-0.33606,-2.80483,0
59120,-0.643532,-0.323022,-2.80015,0
59140,-0.645966,-0.309532,-2.79675,0
59160,-0.6518,-0.29856,-2.79344,0
59180,-0.65325,-0.289424,-2.79172,0
59200,-0.651457,-0.280622,-2.79141,0
59220,-0.649271,-0.274158,-2.79196,0
59240,-0.645201,-0.270083,-2.79339,0
59260,-0.640035,-0.266806,-2.7956,0
59280,-0.636832,-0.263849,-2.79799,0
59300,-0.634504,-0.261287,-2.79986,0
59320,-0.631242,-0.259467,-2.80204,0
59340,-0.627621,-0.258425,-2.80404,0
59360,-0.624595,-0.257868,-2.80571,0
59380,-0.62155,-0.258109,-2.80696,0
59400,-0.615147,-0.25819,-2.80801,0
59420,-0.608943,-0.257947,-2.80895,0
59440,-0.604964,-0.257766,-2.8084,0
59460,-0.602395,-0.258397,-2.80625,0
59480,-0.601202,-0.259063,-2.80348,0
59500,-0.600817,-0.257798,-2.80122,0
59520,-0.59672,-0.255302,-2.79797,1000
59540,-0.593791,-0.253541,-2.79272,0
59560,-0.594491,-0.252431,-2.78547,0
59580,-0.594786,-0.252738,-2.7784,0
59600,-0.592726,-0.253981,-2.77057,0
59620,-0.591249,-0.255628,-2.7616,0
59640,-0.590375,-0.257861,-2.75167,0
59660,-0.589053,-0.261053,-2.742,0
59680,-0.587393,-0.264945,-2.73261,0
59700,-0.58472,-0.268989,-2.7235,0
59720,-0.581018,-0.273465,-2.71422,0
59740,-0.576285,-0.279105,-2.70488,0
59760,-0.570951,-0.285976,-2.69598,0
59780,-0.564645,-0.293542,-2.6878,0
59800,-0.559608,-0.300992,-2.67878,0
59820,-0.556737,-0.308722,-2.67017,0
59840,-0.554768,-0.317549,-2.66218,0
59860,-0.551817,-0.326873,-2.65415,0
59880,-0.549335,-0.336465,-2.64677,0
59900,-0.546742,-0.346178,-2.64075,0
59920,-0.545207,-0.355427,-2.63529,0
59940,-0.545189,-0.364752,-2.63014,0
59960,-0.545424,-0.373579,-2.62651,0
59980,-0.546165,-0.38335,-2.62436,0
60000,-0.547106,-0.392779,-2.6226,0
60020,-0.549052,-0.400879,-2.62005,0
60040,-0.549624,-0.409693,-2.6181,0
60060,-0.548966,-0.418962,-2.61747,0
60080,-0.548885,-0.427893,-2.61766,0
60090,-0.549455,-0.437132,-2.6179,0
60110,-0.548761,-0.446216,-2.61993,0
60130,-0.547684,-0.455873,-2.62293,0
60150,-0.546771,-0.466553,-2.62694,0
60170,-0.546497,-0.477451,-2.63194,0
60190,-0.545275,-0.486326,-2.63816,0
60210,-0.5431,-0.493476,-2.64567,0
60230,-0.540668,-0.501096,-2.65412,0
60250,-0.538941,-0.508864,-2.66256,0
60270,-0.535969,-0.515226,-2.67252,0
60290,-0.532776,-0.520785,-2.68314,0
60310,-0.530554,-0.527168,-2.69412,0
60330,-0.529791,-0.533862,-2.70374,0
60350,-0.528936,-0.541038,-2.71305,0
60370,-0.526488,-0.547996,-2.72359,0
60390,-0.524879,-0.555328,-2.73458,0
60410,-0.522214,-0.563158,-2.74612,0
60430,-0.519498,-0.570825,-2.75756,0
60450,-0.516204,-0.578266,-2.76911,0
60470,-0.512164,-0.586076,-2.78219,0
60490,-0.507225,-0.594058,-2.79707,0
60510,-0.502331,-0.601827,-2.81208,0
60530,-0.497724,-0.608919,-2.82675,0
60550,-0.492947,-0.615733,-2.84224,0
60570,-0.486916,-0.621775,-2.85911,0
60590,-0.480657,-0.627762,-2.87673,0
60610,-0.475101,-0.632944,-2.89357,0
60630,-0.469521,-0.63751,-2.91034,0
60650,-0.463596,-0.642201,-2.92801,0
60670,-0.458119,-0.647413,-2.94575,0
60690,-0.45345,-0.65289,-2.96259,0
60710,-0.448267,-0.65768,-2.9789,0
60730,-0.443537,-0.662933,-2.99509,0
60750,-0.439041,-0.668864,-3.01148,0
60770,-0.434843,-0.674725,-3.02758,0
60790,-0.430642,-0.680338,-3.04336,0
60810,-0.425948,-0.685633,-3.05983,0
60830,-0.420931,-0.690704,-3.07732,0
60850,-0.416625,-0.695581,-3.09517,0
60870,-0.411382,-0.699214,-3.11327,0
60890,-0.40453,-0.70214,-3.13188,0
60910,-0.397002,-0.705078,3.1316,0
60930,-0.389832,-0.707155,3.11173,0
60950,-0.382645,-0.708841,3.09253,0
60970,-0.37569,-0.709997,3.07412,0
60990,-0.368922,-0.711042,3.05548,0
61010,-0.362245,-0.711842,3.03668,0
61030,-0.356031,-0.711165,3.01848,0
61050,-0.351677,-0.708825,3.00164,0
61050,-0.338903,-0.702406,2.96207,0
61070,-0.332541,-0.698288,2.94168,0
61090,-0.324174,-0.694401,2.91977,0
61110,-0.313371,-0.69103,2.89711,0
61130,-0.302866,-0.688108,2.87588,0
61150,-0.294104,-0.685532,2.85649,0
61170,-0.286057,-0.683665,2.83801,0
61190,-0.278112,-0.680973,2.82105,0
61210,-0.271086,-0.678912,2.80603,0
61230,-0.264185,-0.677177,2.79224,0
61250,-0.257077,-0.675893,2.77912,0
61270,-0.249485,-0.673853,2.76617,0
61290,-0.241916,-0.67077,2.75228,0
61310,-0.234815,-0.667557,2.73921,0
61330,-0.227996,-0.665076,2.72805,0
61350,-0.221446,-0.662254,2.7187,0
61370,-0.214917,-0.659366,2.70969,0
61390,-0.208842,-0.655291,2.70088,0
61410,-0.204305,-0.651387,2.69267,0
61430,-0.201368,-0.647434,2.68599,0
61450,-0.19879,-0.643028,2.68092,0
61470,-0.195431,-0.638488,2.67616,0
61490,-0.192055,-0.63379,2.67159,0
61510,-0.190488,-0.629922,2.66862,0
61530,-0.190239,-0.626401,2.66665,0
61570,-0.189593,-0.617473,2.66304,0
61590,-0.189979,-0.613211,2.66259,0
61620,-0.191255,-0.603005,2.66354,0
61640,-0.191774,-0.598421,2.66423,0
61660,-0.192357,-0.593612,2.66497,0
61680,-0.193901,-0.588716,2.66625,0
61700,-0.195864,-0.583376,2.66775,0
61720,-0.197738,-0.576887,2.66808,0
61740,-0.197591,-0.569799,2.66733,0
61760,-0.197872,-0.563265,2.6671,0
61780,-0.200588,-0.557841,2.66948,0
61800,-0.204939,-0.553356,2.67286,0
61820,-0.207858,-0.549159,2.67512,0
61840,-0.210162,-0.544513,2.6762,0
61860,-0.212362,-0.538799,2.67653,0
61880,-0.215784,-0.531999,2.67767,0
61900,-0.218361,-0.524163,2.67725,0
61920,-0.219215,-0.514844,2.67544,0
61940,-0.219913,-0.505712,2.67304,0
61960,-0.221752,-0.497744,2.67255,0
61980,-0.226551,-0.49126,2.67492,0
62000,-0.230332,-0.484727,2.67575,0
62020,-0.231739,-0.476494,2.67484,0
62030,-0.233799,-0.467351,2.67485,0
62050,-0.237319,-0.458964,2.67508,0
62070,-0.239299,-0.450388,2.67398,0
62090,-0.240527,-0.440888,2.67265,0
62110,-0.244953,-0.431983,2.67291,0
62130,-0.250561,-0.424712,2.67371,0
62150,-0.255445,-0.417128,2.67379,0
62170,-0.26027,-0.408596,2.67393,0
62190,-0.265972,-0.401482,2.67555,0
62210,-0.268908,-0.396177,2.6771,0
62230,-0.270284,-0.391222,2.67825,0
62250,-0.274223,-0.385938,2.68047,0
62270,-0.279298,-0.381235,2.68253,0
62290,-0.282548,-0.377417,2.6849,0
62310,-0.287412,-0.374469,2.68888,0
62330,-0.293085,-0.371324,2.69211,0
62350,-0.299522,-0.367389,2.69513,0
62370,-0.306258,-0.364171,2.69944,0
62390,-0.311344,-0.361904,2.70448,0
62410,-0.315067,-0.359681,2.71008,0
62430,-0.319431,-0.356804,2.71581,0
62450,-0.325572,-0.353385,2.7225,0
62470,-0.333257,-0.349751,2.72999,0
62490,-0.341606,-0.347097,2.73818,0
62510,-0.349693,-0.34441,2.74654,0
62530,-0.357178,-0.341421,2.75493,0
62550,-0.364348,-0.338825,2.76374,0
62570,-0.369,-0.336352,2.77226,0
62590,-0.373235,-0.33368,2.78053,0
62610,-0.377455,-0.331335,2.7883,0
62630,-0.381843,-0.329425,2.79592,0
62650,-0.384954,-0.326625,2.80282,0
62670,-0.387221,-0.322751,2.80915,0
62690,-0.390656,-0.319407,2.81633,0
62710,-0.393332,-0.31607,2.82277,0
62730,-0.397109,-0.311514,2.82873,0
62750,-0.401838,-0.306912,2.83622,0
62770,-0.404341,-0.303571,2.84397,0
62790,-0.40594,-0.299574,2.85112,0
62810,-0.412144,-0.295559,2.85956,0
62830,-0.421411,-0.292198,2.86883,0
62850,-0.429939,-0.289005,2.87764,0
62870,-0.437184,-0.286506,2.8872,0
62890,-0.443114,-0.284922,2.89718,0
62910,-0.448449,-0.28339,2.9068,0
62930,-0.454269,-0.281849,2.9161,0
62950,-0.459805,-0.280766,2.9257,0
62970,-0.464713,-0.280698,2.93586,0
62990,-0.47015,-0.280032,2.9449,0
63010,-0.475995,-0.27794,2.95317,0
63030,-0.482241,-0.276188,2.96205,0
63050,-0.487097,-0.274821,2.97113,0
63070,-0.491662,-0.273866,2.98025,0
63090,-0.496889,-0.272693,2.98941,0
63110,-0.500924,-0.271053,2.9992,0
63130,-0.505311,-0.27073,3.01025,0
63150,-0.510176,-0.272278,3.02337,0
63170,-0.51548,-0.274549,3.03662,0
63190,-0.521103,-0.276109,3.05001,0
63210,-0.528046,-0.27813,3.06423,0
63230,-0.533988,-0.280535,3.07832,0
63250,-0.538502,-0.282073,3.09087,0
63270,-0.540491,-0.283261,3.10351,0
63290,-0.542963,-0.286522,3.11794,0
63310,-0.546108,-0.290979,3.13181,0
63330,-0.550504,-0.293131,-3.13783,0
63360,-0.561191,-0.297675,-3.10693,0
63380,-0.567333,-0.301871,-3.09011,0
63400,-0.572929,-0.306263,-3.07336,0
63420,-0.578117,-0.310672,-3.05596,0
63440,-0.582897,-0.315586,-3.03909,0
63460,-0.58791,-0.320301,-3.02215,0
63480,-0.592941,-0.325438,-3.00494,0
63500,-0.598825,-0.331352,-2.98708,0
63520,-0.604674,-0.336545,-2.96913,0
63540,-0.609525,-0.341288,-2.95192,0
63560,-0.613013,-0.347186,-2.93618,0
63580,-0.614481,-0.354517,-2.92053,0
63600,-0.615743,-0.361994,-2.90384,0
63620,-0.615461,-0.369447,-2.88836,0
63640,-0.613532,-0.376807,-2.87378,0
63660,-0.612371,-0.384177,-2.85872,0
63680,-0.613383,-0.392833,-2.84298,0
63700,-0.615524,-0.402191,-2.82662,0
63720,-0.618194,-0.411339,-2.81045,0
63740,-0.618975,-0.420124,-2.79588,0
63760,-0.619217,-0.428712,-2.78167,0
63780,-0.620854,-0.437514,-2.76662,0
63800,-0.62191,-0.446804,-2.75187,0
63820,-0.620905,-0.456947,-2.73891,0
63840,-0.618917,-0.467554,-2.7274,0
63860,-0.615432,-0.477927,-2.71638,0
63880,-0.60816,-0.487967,-2.70689,0
63900,-0.597374,-0.500084,-2.69932,0
63920,-0.588272,-0.514155,-2.69125,0
63940,-0.58489,-0.527882,-2.68203,0
63960,-0.581438,-0.539952,-2.67466,0
63980,-0.575534,-0.551375,-2.66855,0
64000,-0.57002,-0.562226,-2.66225,0
64020,-0.56734,-0.573865,-2.65446,0
64040,-0.564744,-0.587029,-2.64678,0
64060,-0.561694,-0.599581,-2.64025,0
64080,-0.560505,-0.611148,-2.63419,0
64100,-0.562602,-0.62246,-2.6278,0
64120,-0.563946,-0.634088,-2.6209,0
64140,-0.56313,-0.646234,-2.61572,0
64160,-0.561581,-0.657075,-2.61284,0
64180,-0.563424,-0.668152,-2.60758,0
64200,-0.5652,-0.680795,-2.60405,0
64220,-0.564748,-0.692791,-2.60325,0
64240,-0.564372,-0.704651,-2.60227,0
64260,-0.565529,-0.715123,-2.60113,0
64280,-0.567218,-0.726234,-2.59994,0
64300,-0.568735,-0.737738,-2.60044,0
64320,-0.569927,-0.747488,-2.60201,0
64340,-0.570868,-0.756114,-2.60434,0
64360,-0.569469,-0.765163,-2.60825,0
64380,-0.567972,-0.774443,-2.61269,0
64400,-0.566168,-0.78443,-2.61958,0
64420,-0.564217,-0.793563,-2.62677,0
64440,-0.559898,-0.802374,-2.63681,0
64460,-0.554829,-0.811167,-2.6467,0
64480,-0.550346,-0.821228,-2.65681,0
64500,-0.54558,-0.831495,-2.66806,0
64520,-0.539887,-0.842242,-2.68016,0
64540,-0.533386,-0.853301,-2.69325,0
64560,-0.526786,-0.865031,-2.70769,0
64580,-0.519831,-0.876477,-2.72279,0
64600,-0.512578,-0.887761,-2.73831,0
64620,-0.504069,-0.898991,-2.75574,0
64640,-0.49526,-0.908667,-2.77431,0
64660,-0.484007,-0.918555,-2.79598,0
64680,-0.471967,-0.927889,-2.8175,0
64700,-0.461845,-0.936902,-2.83777,0
64720,-0.451978,-0.946104,-2.85792,0
64740,-0.440943,-0.954884,-2.87915,0
64760,-0.429517,-0.963615,-2.90078,0
64780,-0.419087,-0.971647,-2.92175,0
64800,-0.410188,-0.978644,-2.94106,0
64820,-0.400034,-0.984799,-2.96111,0
64840,-0.388755,-0.989643,-2.98202,0
64860,-0.377649,-0.992313,-3.0023,0
64880,-0.368097,-0.994115,-3.02118,0
64900,-0.358128,-0.995203,-3.04061,0
64910,-0.327063,-0.997428,-3.09838,0
64930,-0.314922,-0.998607,-3.12028,0
64950,-0.300681,-0.998604,3.13966,0
64970,-0.286288,-0.998751,3.11735,0
64990,-0.273359,-0.999797,3.09707,0
65010,-0.259725,-1.00138,3.07578,0
65020,-0.244828,-1.00307,3.05348,0
65040,-0.230588,-1.00468,3.0322,0
65060,-0.216126,-1.00654,3.01134,0
65070,-0.201669,-1.00849,2.99059,0
65090,-0.187069,-1.01017,2.96941,0
65110,-0.171687,-1.01096,2.9473,0
65130,-0.156635,-1.01131,2.92552,0
65150,-0.141685,-1.01138,2.90418,0
65170,-0.127901,-1.01105,2.88387,0
65190,-0.113463,-1.00965,2.86266,0
65210,-0.0972607,-1.0065,2.83958,0
65230,-0.0806381,-1.00237,2.81582,0
65250,-0.0647018,-0.997342,2.79234,0
65270,-0.0493601,-0.990651,2.76992,0
65290,-0.0344328,-0.983485,2.74962,0
65310,-0.0157396,-0.97476,2.72689,0
65320,0.000589524,-0.965653,2.70716,0
65340,0.0134225,-0.958084,2.69038,0
65360,0.0223612,-0.95251,2.67739,0
65380,0.0277216,-0.947964,2.66845,0
65400,0.0345362,-0.942286,2.65818,0
65420,0.0427792,-0.935085,2.64691,0
65440,0.0464892,-0.929149,2.63924,0
65460,0.0477322,-0.924772,2.63449,0
65480,0.0479826,-0.919999,2.63196,0
65500,0.0497434,-0.914141,2.62831,0
65520,0.0510923,-0.907524,2.62503,0
65540,0.0498697,-0.900949,2.62324,0
65560,0.0472801,-0.894207,2.62273,0
65580,0.04544,-0.887273,2.62259,0
65600,0.0472056,-0.879032,2.61969,0
65620,0.0480015,-0.870097,2.618,0
65640,0.044922,-0.862699,2.61902,0
65660,0.0407252,-0.857073,2.62117,0
65680,0.0375741,-0.851066,2.62264,0
65700,0.0333036,-0.843851,2.6231,0
65720,0.0288796,-0.835585,2.62246,0
65740,0.0243196,-0.825887,2.62308,0
65760,0.0194503,-0.814973,2.62372,0
65780,0.0134501,-0.801683,2.62329,0
65800,0.00853408,-0.787828,2.6203,0
65820,0.00304827,-0.773581,2.61672,0
65840,-0.00825856,-0.760982,2.61846,0
65860,-0.0213936,-0.750866,2.62293,0
65880,-0.0288163,-0.739637,2.62404,0
65900,-0.0344146,-0.7265,2.62301,0
65920,-0.0430872,-0.714296,2.62442,0
65940,-0.0537449,-0.70368,2.62734,0
65960,-0.0628096,-0.692896,2.62924,0
65980,-0.0714516,-0.681437,2.63192,0
66000,-0.0816297,-0.672031,2.63722,0
66020,-0.0922159,-0.665139,2.6446,0
66040,-0.101204,-0.658531,2.64962,0
66060,-0.11205,-0.651871,2.6535,0
66080,-0.124682,-0.64543,2.65827,0
66100,-0.137017,-0.640105,2.66391,0
66120,-0.146115,-0.635085,2.66855,0
66140,-0.154411,-0.629524,2.67337,0
66160,-0.162812,-0.624038,2.67828,0
66180,-0.170619,-0.618576,2.68228,0
66200,-0.177316,-0.6132,2.68585,0
66220,-0.183805,-0.607999,2.68939,0
66240,-0.19049,-0.603477,2.69372,0
66260,-0.199236,-0.599313,2.70002,0
66280,-0.207385,-0.59478,2.70597,0
66300,-0.214118,-0.589654,2.71136,0
66320,-0.223042,-0.58483,2.71879,0
66340,-0.232942,-0.580057,2.72711,0
66360,-0.242585,-0.574751,2.73485,0
66380,-0.253658,-0.569384,2.74318,0
66400,-0.26546,-0.564266,2.75217,0
66420,-0.276117,-0.559548,2.76132,0
66440,-0.285805,-0.554924,2.77055,0
66460,-0.292824,-0.549316,2.7788,0
66480,-0.299213,-0.543596,2.78733,0
66500,-0.304834,-0.538083,2.79576,0
66520,-0.311098,-0.532326,2.80419,0
66540,-0.318795,-0.526655,2.81342,0
66560,-0.326475,-0.521208,2.82245,0
66580,-0.332057,-0.515766,2.83056,0
66600,-0.337287,-0.510641,2.83975,0
66620,-0.343407,-0.506838,2.84958,0
66640,-0.347887,-0.503596,2.85848,0
66660,-0.352359,-0.500621,2.86861,0
66680,-0.357999,-0.498395,2.88026,0
66700,-0.365571,-0.496849,2.89227,0
66720,-0.374106,-0.495307,2.90443,0
66740,-0.384521,-0.494562,2.91839,0
66760,-0.394821,-0.494688,2.93314,0
66780,-0.403324,-0.494053,2.94668,0
66800,-0.412423,-0.493371,2.96049,0
66820,-0.420489,-0.493598,2.97386,0
66840,-0.42643,-0.493742,2.98592,0
66860,-0.431707,-0.494302,2.99896,0
66880,-0.436829,-0.495135,3.01229,0
66900,-0.442357,-0.496612,3.0256,0
66920,-0.447658,-0.498906,3.03944,0
66940,-0.452549,-0.501508,3.05392,0
66960,-0.457682,-0.504494,3.06923,0
66980,-0.462923,-0.507921,3.08443,0
67000,-0.468339,-0.511194,3.1006,0
67020,-0.474954,-0.514691,3.11704,0
67040,-0.483033,-0.518101,3.13415,0
67060,-0.491937,-0.52136,-3.13154,0
67080,-0.500575,-0.524593,-3.1139,0
67100,-0.508596,-0.528089,-3.09616,0
67120,-0.517069,-0.532251,-3.07756,0
67140,-0.525944,-0.536771,-3.05812,0
67160,-0.535095,-0.54227,-3.0382,0
67180,-0.543756,-0.547985,-3.01796,0
67200,-0.553735,-0.553924,-2.99675,0
67220,-0.565234,-0.56069,-2.97486,0
67240,-0.576219,-0.567724,-2.95293,0
67260,-0.587468,-0.574735,-2.93067,0
67270,-0.598494,-0.581813,-2.90814,0
67290,-0.609601,-0.589876,-2.88628,0
67310,-0.620177,-0.597773,-2.86416,0
67330,-0.631432,-0.606486,-2.84168,0
67350,-0.641167,-0.614344,-2.81951,0
67370,-0.650403,-0.621952,-2.79684,0
67390,-0.661037,-0.631087,-2.7741,0
