Timestamp, Rotation x, Rotation y, Rotation z, Marker
50,0.9375,-1.5625,-0.5,0
70,1.0625,-1.75,-0.875,0
90,1.6875,-2.0625,-0.625,0
110,1.6875,-1.6875,-0.4375,0
130,2.125,-1.625,-0.125,0
150,1.9375,-1.6875,0.125,0
160,1.625,-1.625,0.5,0
160,0.8125,-1.4375,0.5,0
200,1.25,-1.5625,0.1875,0
220,1.875,-1.6875,-0.125,0
240,2.625,-1.8125,-0.5,0
260,2.1875,-1.875,-0.375,0
280,2,-1.9375,0.0625,0
300,1.4375,-1.625,0.1875,0
320,0.5625,-1.5625,-0.3125,0
340,0.3125,-1.5625,-0.8125,0
360,-0.1875,-1.25,-0.625,0
380,-0.375,-0.8125,-0.25,0
400,-0.5625,-0.75,0.5,0
420,-0.9375,-0.8125,1.375,0
440,-1.1875,-1,1.75,0
460,0.1875,-1,1.625,0
480,0.9375,-1,1,0
500,1.375,-1,0.375,0
520,-0.125,-1.1875,-0.4375,0
540,-1.1875,-0.75,-0.4375,0
560,-1.5,-0.5,0.0625,0
580,-1.6875,-0.5625,0.0625,0
600,-1.5625,-0.75,-0.3125,0
620,-1.375,-0.8125,-0.5625,0
640,-1.4375,-0.875,-0.9375,0
660,-0.9375,-1.25,-1,0
680,-0.8125,-1.1875,-0.8125,0
700,-1.75,-0.875,-0.5,0
720,-1.8125,-0.8125,-0.5,0
740,-1.375,-1,-0.1875,0
760,-0.625,-0.875,0.5625,0
780,-0.8125,-0.625,0.125,0
800,-0.9375,-0.6875,0.0625,0
820,-0.9375,-0.625,0.4375,0
840,-1.4375,-0.375,0.1875,0
860,-1.5625,-0.1875,0.1875,0
880,-2,-0.1875,0.0625,0
900,-2.0625,-0.1875,0.0625,0
920,-2.75,-0.1875,0.0625,0
940,-3.1875,-0.125,0,0
960,-3,-0.3125,0,0
980,-3,-0.375,-0.3125,0
1000,-3.0625,-0.4375,-0.75,0
1020,-2.875,-0.375,-1,0
1040,-2.625,-0.375,-1.1875,0
1060,-2.8125,-0.5625,-0.9375,0
1080,-2.375,-0.5625,-0.375,0
1100,-2.3125,-0.625,-0.1875,0
1120,-2.25,-0.875,-0.625,0
1140,-1,-0.8125,-1.1875,0
1160,0.625,-0.8125,-1.5,0
1180,1.375,-0.9375,-0.875,0
1200,2.1875,-1,0.0625,0
1220,2.5625,-1.5625,1,0
1240,3.5,-2.125,1.8125,0
1260,4.9375,-2.125,1.5,0
1280,4.5625,-2.375,0.8125,0
1300,4,-2.4375,-0.5,0
1320,3.5625,-2.125,-1,0
1340,2.375,-1.8125,-0.5,0
1360,1.875,-1.875,-0.4375,0
1380,2.6875,-2.1875,-0.875,0
1400,2.625,-2.1875,-1.1875,0
1420,2,-2.1875,-1.0625,0
1440,1.3125,-1.875,-0.8125,0
1460,-0.0625,-1.5625,-0.6875,0
1480,-1.25,-1,-0.5625,0
1500,-1.6875,-0.875,-0.125,0
1520,-1.4375,-0.875,0.5,0
1540,-0.875,-0.9375,1.4375,0
1560,-0.3125,-1.125,1.5625,0
1580,-0.125,-1.1875,1.75,0
1600,-0.5625,-1.25,1.75,0
1620,-1.3125,-0.9375,0.8125,0
1640,-1.1875,-0.8125,0.375,0
1660,-1.25,-0.875,0.3125,0
1680,-0.75,-0.375,-0.625,0
1700,-0.0625,-0.4375,-1.125,0
1720,0.5625,-0.375,-0.5,0
1740,0.1875,-0.4375,0.5,0
1760,-0.375,-0.3125,0.75,0
1780,-0.5,-0.375,1,0
1800,-0.25,-0.5,1.4375,0
1820,-0.5625,-0.375,1.6875,0
1830,-0.625,-0.4375,1.4375,0
1850,-1.25,-0.625,1.0625,0
1870,-2.25,-0.0625,0.4375,0
1890,-0.375,-0.25,0.1875,0
1910,0.125,-0.4375,0.0625,0
1930,-0.0625,-0.5,0.4375,0
1950,-1.375,-0.125,0.6875,0
1970,-2.0625,0.125,0.5,0
1990,-1.8125,-0.1875,0.9375,0
2010,-0.8125,-0.5625,1.4375,0
2030,-0.5625,-0.6875,1.3125,0
2050,-0.4375,-0.5,0.5,0
2070,-0.8125,-0.6875,-0.0625,0
2090,-0.8125,-0.75,-0.375,0
2110,0.6875,-0.625,-0.0625,0
2130,1.8125,-1.625,0.8125,0
2150,1.375,-1.625,1.4375,0
2170,0.625,-1.25,0.375,0
2190,-0.625,-1.5625,-1.0625,0
2210,-0.125,-1.375,-0.8125,0
2230,0.75,-0.6875,-0.1875,0
2250,-0.25,0.375,-0.1875,0
2270,-1.25,0.5625,0.125,0
2290,-1.375,0,2.125,0
2310,-2.0625,-0.25,3.9375,0
2330,-1.9375,-0.3125,3.1875,0
2350,-3.3125,-0.5625,2.625,0
2370,-5.5625,-0.5625,2.0625,0
2390,-5.875,-0.0625,1.5,0
2410,-2.75,-0.6875,-0.875,0
2430,0.9375,-1.3125,-3.4375,0
2450,1.75,-1.0625,-3.375,0
2470,0.75,-0.5,-2.0625,0
2490,-0.5,-0.375,-0.8125,0
2510,-1.9375,-0.625,0.75,0
2530,-2.8125,-0.875,2.1875,0
2550,-2.625,-0.75,2.1875,0
2570,-2,-0.4375,1.625,0
2590,-1.4375,-0.6875,0.6875,0
2610,-1.0625,-0.6875,-0.25,0
2630,-0.9375,-0.625,-1.125,0
2650,-0.9375,-0.6875,-1.625,0
2670,-0.3125,-0.875,-2,0
2690,-0.375,-0.8125,-2.4375,0
2710,-0.3125,-0.8125,-2.3125,0
2730,-0.75,-0.9375,-1.75,0
2750,-0.8125,-1.25,-0.6875,0
2770,-0.5,-1.4375,0.5,0
2790,0.3125,-1.3125,0.6875,0
2810,0.875,-1.5625,-0.5625,0
2830,0.875,-1.6875,-1.1875,0
2850,0.375,-1.1875,-0.25,0
2870,1,-1.25,-0.1875,0
2890,1.9375,-1.5625,-0.3125,0
2910,2.6875,-1.6875,-0.125,0
2930,2.625,-1.5625,-0.5,0
2950,2.6875,-1.5625,-0.125,0
2970,2.375,-1.375,0.25,0
2990,1.625,-1.3125,0.4375,0
3010,0.875,-1.4375,0.625,0
3030,0.9375,-1.4375,0.5625,0
3050,1,-1.375,0.625,0
3070,1,-1.5625,-0.125,0
3090,1.1875,-1.8125,-0.4375,0
3110,1.9375,-1.8125,-0.0625,0
3130,1.875,-1.6875,-0.375,0
3150,1.375,-1.9375,-0.5,0
3170,1.25,-2.5,-0.9375,0
3190,0.3125,-1.6875,-0.875,0
3210,0.3125,-0.9375,-0.125,0
3230,0.9375,-0.6875,-0.4375,0
3250,1.125,-0.9375,-0.625,0
3270,0.6875,-1.1875,-0.5625,0
3290,0.5625,-1.1875,-0.625,0
3310,0.3125,-1.0625,-0.3125,0
3330,0.125,-0.9375,0.0625,0
3350,0.375,-1.125,0.1875,0
3370,-0.125,-1.5625,0.375,0
3390,-0.8125,-1.5625,0.1875,0
3410,-0.375,-1.6875,0.125,0
3430,-0.125,-1.875,0.0625,0
3450,-0.875,-1.25,-0.125,0
3470,-0.9375,-0.8125,0.125,0
3490,-0.75,-0.625,0,0
3510,-0.375,-0.8125,0.1875,0
3530,0.1875,-0.875,0.75,0
3550,0.1875,-0.8125,0.8125,0
3570,-0.6875,-0.5625,0.375,0
3590,-1.6875,-0.75,-0.125,0
3610,-2.375,-0.375,0.8125,0
3630,-2.8125,0.125,1.25,0
3650,-3.4375,0,0.6875,0
3670,-3.75,-0.1875,0.0625,0
3690,-4,-0.0625,-0.375,0
3710,-3.5,-0.25,-0.4375,0
3730,-3.5625,-0.0625,0.25,0
3750,-3.875,0.3125,0.375,0
3770,-3.6875,0.25,0.4375,0
3790,-3.5,0.375,1.1875,0
3810,-4.625,0.5625,2.4375,0
3830,-5.5625,0.875,3.375,0
3850,-8.1875,0.4375,4.3125,0
3870,-10.125,-0.375,4.8125,0
3890,-11.8125,-1.4375,4.4375,0
3910,-6.4375,-2.25,1.9375,0
3930,-0.5,-2.0625,-0.9375,0
3950,3.3125,-1.8125,-3.0625,0
3970,5.375,-1.75,-5.8125,0
3990,4.125,-1.875,-6.8125,0
4010,2.125,-1.9375,-5.875,0
4030,1.625,-1.6875,-3.8125,0
4050,1.6875,-1.4375,-1.25,0
4070,0.0625,-1,1.1875,0
4090,-2,-0.8125,2.875,0
4110,-3.75,-0.125,3,0
4130,-4.625,-0.0625,2.0625,0
4150,-4.1875,0.3125,1.5625,0
4170,-3.1875,0.1875,1.25,0
4190,-1,-0.25,1.4375,0
4210,1.25,-0.75,0.75,0
4230,3.0625,-1.25,-0.1875,0
4250,3,-1.25,-0.8125,0
4270,0.75,-0.8125,-1,0
4290,-1.625,-0.625,-0.8125,0
4310,-2.25,-0.1875,-0.3125,0
4330,-1.3125,-0.3125,0.0625,0
4350,-0.5625,-0.5625,0.0625,0
4370,0.1875,-0.8125,-0.6875,0
4390,0.625,-1,-1.1875,0
4400,0.875,-0.6875,-0.0625,0
4420,0.1875,-0.9375,1,0
4440,-0.1875,-1.125,1.4375,0
4460,-0.0625,-1.25,1.625,0
4480,0.0625,-1.1875,1.875,0
4500,-0.1875,-1,1.1875,0
4520,0.375,-0.9375,0.3125,0
4540,1.125,-0.875,-0.75,0
4560,1.875,-1.1875,-0.75,0
4580,2.25,-1.1875,-0.375,0
4600,1.5,-1.125,0.0625,0
4620,0.0625,-0.875,-0.125,0
4640,-1.0625,-0.8125,0.125,0
4660,-1.3125,-1,0.8125,0
4680,-0.875,-1.0625,0.9375,0
4700,0.3125,-1.25,0.375,0
4720,1.375,-1.0625,0,0
4740,1.25,-0.8125,0.0625,0
4760,0.1875,-0.6875,0.3125,0
4780,-1.25,-0.375,0.1875,0
4800,-2.3125,-0.375,0.125,0
4820,-0.6875,-0.6875,0.0625,0
4840,1.8125,-1.125,0.375,0
4860,6.8125,-2.375,0.4375,0
4880,8.875,-3.3125,1.0625,0
4900,10.8125,-3.3125,2.125,0
4920,11.4375,-3.75,2.6875,0
4940,13.5625,-4.625,3.1875,0
4960,15.8125,-4.9375,3.875,0
4980,16.0625,-5.125,4,0
5000,14.9375,-4.375,5.25,0
5020,9.75,-3.25,7.1875,0
5040,7.5625,-1.9375,8.0625,0
5060,3.4375,-1.125,9.875,0
5080,1.1875,-2.3125,17.9375,0
5100,16.75,-6.3125,12.8125,0
5120,15.5625,-3.25,6.6875,0
5140,11.1875,-3,6.8125,0
5160,9.625,-3.375,6.875,0
5180,8.8125,-3.625,3.25,0
5200,10.4375,-2.5,1.625,0
5220,11.25,-3.125,1.5,0
5240,9.375,-2.9375,2.8125,0
5260,3.8125,-2.0625,4.875,0
5280,1.8125,-6.25,8.25,0
5300,29.375,-8.6875,2.0625,0
5320,29.8125,-1.9375,-0.25,0
5340,17.25,-0.625,2.625,0
5360,26.9375,2.5,0,0
5380,28.6875,10.3125,-8.125,0
5400,12.5,10.5,-10.625,0
5420,6.25,3.5625,-8.8125,0
5440,11.4375,-1.6875,-10.4375,0
5460,15.1875,-7.125,-13.4375,0
5480,6.25,-10.8125,-13.8125,0
5500,-24.75,-14.5625,-5.375,0
5520,-39.0625,-24.375,9.9375,0
5540,-55.375,-43.6875,10.8125,0
5560,-76.875,-52.125,-31.625,0
5580,-75.625,-57.9375,-25.9375,0
5600,-49.9375,-69.8125,-18.4375,0
5620,-16.6875,-78.9375,-27.0625,0
5640,-3,-86.5625,-28.1875,0
5660,-12.5,-92.125,-27.125,0
5680,-26.875,-97.0625,-32.3125,0
5700,-42.125,-101.5,-35.1875,0
5720,-43.875,-103.25,-34.625,0
5740,-39.375,-102.75,-34.375,0
5760,-31.625,-101.5,-34.75,0
5780,-26.375,-97.875,-35.3125,0
5800,-22.1875,-92.9375,-35.3125,0
5820,-23.6875,-86.9375,-33.1875,0
5840,-28.125,-81.25,-33.125,0
5860,-27.3125,-76.875,-36.4375,0
5880,-33.1875,-71.6875,-34.375,0
5900,-33.125,-59.8125,-26.1875,0
5930,-32.875,-38.1875,-14.375,0
5950,-39.3125,-21.6875,-3.75,0
5970,-38.75,6.125,54.625,0
5990,-44.375,8.5,60.1875,0
6010,-52.625,10.625,53.5,0
6030,-43,11.375,45.4375,0
6050,-28.125,7,32.875,0
6070,-17.625,2.375,18.625,0
6090,-7.375,-1.0625,5.75,0
6110,4.25,-3.6875,-6.375,0
6130,10.75,-4.9375,-18.75,0
6150,11.6875,-6.375,-27.125,0
6170,14.9375,-7.9375,-34.625,0
6190,17.375,-7.125,-41.9375,0
6210,15.5625,-7.9375,-44.5625,0
6230,10.9375,-8.625,-45.5625,0
6250,9.3125,-6.625,-48,0
6270,14.375,-3.6875,-51,0
6290,20.375,-2.25,-51.3125,0
6310,20.875,-0.125,-49.125,0
6330,18.75,3.375,-47.5625,0
6350,14,6.4375,-43.5625,0
6370,11.875,9.0625,-39.9375,0
6390,9.0625,12.3125,-37.9375,0
6410,9.75,17.1875,-35.0625,0
6430,10.3125,20.625,-34.25,0
6450,11.0625,23.5,-29.5,0
6470,11.1875,25.3125,-23.625,0
6490,9.8125,25.9375,-20.0625,0
6510,7,26,-16.3125,0
6530,1.875,25.6875,-13.9375,0
6550,-1.9375,27.25,-10.5,0
6570,-0.5,29.1875,-7.4375,0
6590,2.0625,29.6875,-4.3125,0
6610,4.8125,29.75,1.3125,0
6630,1.5,30.3125,5.3125,0
6650,-0.4375,31.375,5.8125,0
6670,0.8125,32.0625,6.375,0
6690,8.0625,29.25,8.3125,0
6710,9.375,26.75,10.3125,0
6730,7.5625,24,15,0
6750,8.4375,17.5625,18.25,0
6770,5.75,11.6875,17.4375,0
6790,7,7.5625,16.25,0
6810,8.9375,0.6875,16.125,0
6830,7,-2.75,19.875,0
6850,0.375,-3,23.25,0
6870,-4.875,-3.875,18.875,0
6890,-6.625,-5,12.3125,0
6900,-4.875,-4.75,7.875,0
6920,-2.3125,-0.5625,3.6875,0
6940,-0.3125,3.875,3.875,0
6960,-3.625,5.75,4.125,0
6980,-7.3125,6.75,2.5,0
7000,-13.125,6.75,2.25,0
7020,-14.375,5.125,9,0
7040,-17.8125,4.4375,13.125,0
7060,-20,5.625,12.4375,0
7080,-19.8125,8.625,11,0
7100,-17.6875,14.4375,4.5625,0
7120,-17.4375,17,-4.375,0
7140,-17.1875,19.375,-11.875,0
7160,-12.75,24.75,-16.4375,0
7180,-0.3125,25,-22.1875,0
7200,6.8125,24,-27.1875,0
7220,17.375,24.3125,-34.0625,0
7240,24.625,22,-39.3125,0
7260,23.125,18.0625,-39.9375,0
7280,14.625,12.6875,-38.5,0
7300,14.8125,10.125,-33.25,0
7320,13.9375,7.4375,-30.3125,0
7340,15.125,5.1875,-30.625,0
7360,16.4375,3,-27,0
7380,15.25,0.3125,-21.125,0
7400,11.625,1.0625,-16.75,0
7420,9.8125,0.8125,-8.5,0
7440,3.5625,-0.125,0.25,0
7460,3.6875,-0.25,2.625,0
7480,2.5,4.625,3.5625,0
7500,2.875,9.8125,7,0
7520,6.0625,13.375,7.6875,0
7540,8.5625,13.6875,4.5,0
7560,9.8125,9.9375,5.3125,0
7580,3.875,-0.375,11.125,0
7600,-3.4375,-2.3125,21.125,0
7620,-3.5625,0.0625,28.5,0
7640,-3.3125,0.875,26.625,0
7660,-1,7.0625,23.4375,0
7680,0.5,12.1875,21.875,0
7700,-2.5,18.125,16.875,0
7720,-3.875,16.4375,4.4375,0
7740,-0.875,6.5625,-3.9375,0
7760,10.875,0,-11.25,0
7780,27,-1.4375,-17.5,0
7800,40.875,0.875,-21.6875,0
7820,48.625,6.625,-25.25,0
7840,48.1875,11.1875,-29.125,0
7860,38.1875,18.0625,-30.0625,0
7880,25.6875,28.25,-24.625,0
7900,0.1875,31.8125,-12.4375,0
7920,-9.5625,23.125,-1.875,0
7940,-18.1875,17.6875,-6,0
7960,-14.5,14.5625,-3.5,0
7980,-15.8125,10.125,5,0
8000,-7.9375,7.375,13.8125,0
8020,-7.75,8.625,26.0625,0
8040,-18,8,27.375,0
8060,-17.125,6.5,20.0625,0
8080,-5.625,2.875,10.375,0
8100,7.125,0.625,0.0625,0
8120,18.5625,-0.1875,-9.9375,0
8140,30.1875,-0.375,-17.3125,0
8160,42.875,-1.375,-23.3125,0
8180,47.25,-2.8125,-28.5625,0
8200,54.25,-0.8125,-33.5,0
8220,40.5625,9.9375,-35.25,0
8240,17.4375,17,-26,0
8260,-16.6875,14.875,-9.1875,0
8280,-40.5625,7.25,3.125,0
8300,-35.875,7.875,7.25,0
8320,-37,4.625,25.75,0
8340,-51.5,1.875,47.375,0
8360,-65.5,-3,54.375,0
8380,-61.625,-7.0625,35.625,0
8400,-38.375,-11.625,18.5625,0
8420,-9.3125,-15.3125,13.0625,0
8440,3.125,-20.5,3.25,0
8460,3.3125,-25.5,-2.3125,0
8480,1.25,-28.4375,-6.6875,0
8500,10.4375,-27.5,-16.4375,0
8520,27.8125,-24.375,-26.9375,0
8540,44.9375,-18.8125,-36.8125,0
8560,53.75,-11.875,-43.4375,0
8580,51.25,-3.0625,-44.8125,0
8600,33.9375,5.75,-38.0625,0
8620,13.9375,16.75,-30.4375,0
8640,-6.5,26.5625,-22.0625,0
8660,-19.125,27.75,-21.6875,0
8680,-12.125,20.5625,-29.9375,0
8700,-14.1875,14.875,-28.25,0
8720,-24.625,14.1875,-17.4375,0
8740,-20.3125,10.8125,0.875,0
8760,-26.125,9.625,29.625,0
8780,-39.875,3.6875,50.3125,0
8800,-55,-0.625,54.5,0
8820,-50.3125,-9.125,53.375,0
8840,-45.625,-18.9375,55.6875,0
8860,-33.5625,-28.25,54.125,0
8880,-20.375,-37.375,40.5625,0
8900,-5.8125,-43.9375,25.625,0
8920,1.9375,-53.9375,11.5,0
8940,4.625,-62.875,0.5,0
8960,7.375,-68.9375,-12.6875,0
8980,14.75,-75.6875,-29.5625,0
9000,18.625,-80.3125,-41.1875,0
9020,18.6875,-81,-49.1875,0
9040,14.6875,-77.9375,-62.5,0
9060,12.9375,-72.5625,-79.1875,0
9070,9.6875,-66.1875,-87.1875,0
9070,11.875,-61.4375,-90.75,0
9090,11.75,-58.0625,-95.125,0
9110,3.8125,-48.3125,-95,0
9160,2.625,-46.75,-91,0
9180,-6.8125,-33.1875,-82.8125,0
9200,-11.8125,-8.0625,-73.875,0
9220,-8.8125,4.9375,-68.4375,0
9240,-10,17.625,-62.6875,0
9260,-16.625,27.625,-52.4375,0
9280,-17.875,38.625,-42.6875,0
9300,-16.3125,53.9375,-37,0
9320,-11.875,68.625,-31.9375,0
9340,-13.125,78,-25.5,0
9360,-9.875,84,-17.6875,0
9380,-10.625,92.375,-8.0625,0
9400,-16.1875,97.3125,5.3125,0
9420,-19.6875,96.6875,19.3125,0
9440,-19.375,95,33.9375,0
9460,-26.375,93.625,42,0
9470,-30.3125,88.625,46.0625,0
9490,-27.6875,81.5625,54.3125,0
9510,-23.875,70.5,70,0
9530,-35.3125,58.9375,84.3125,0
9550,-46.625,45.6875,104.125,0
9570,-61.125,24.9375,125.062,0
9590,-64.1875,7.9375,135.5,0
9610,-62.5625,-6.5,119.375,0
9630,-55.8125,-19.3125,100.75,0
9650,-40.75,-32.9375,98.3125,0
9670,-32,-45.875,99.875,0
9690,-35,-60.1875,79.75,0
9710,-35.3125,-70.9375,59,0
9730,-32.6875,-84.1875,47.625,0
9750,-29.6875,-99.625,35.0625,0
9770,-21.625,-110.438,19.125,0
9790,-13.3125,-121.125,1.4375,0
9810,-8.6875,-127.312,-12.4375,0
9830,-9.125,-130.438,-23.3125,0
9850,-18.375,-134.312,-39.0625,0
9870,-25.75,-132.312,-51.8125,0
9890,-33.875,-129.25,-59.1875,0
9910,-40.25,-124.75,-66.8125,0
9930,-43,-115.625,-76.25,0
9950,-39.125,-105.812,-85.6875,0
9970,-37.25,-95.8125,-88.1875,0
9990,-39.875,-87.5,-87,0
10010,-41.875,-76.875,-88.875,0
10030,-41.1875,-63.4375,-91.3125,0
10050,-39.1875,-49.3125,-91.3125,0
10070,-36.875,-35.375,-89.375,0
10090,-32.8125,-19.5,-86.75,0
10110,-29,-4.8125,-81.625,0
10130,-27.4375,7.75,-73.6875,0
10150,-24.5,19.6875,-66.8125,0
10170,-13.125,31.375,-63.8125,0
10190,-4.5625,42.5625,-60.6875,0
10210,3.625,52.0625,-59,0
10230,11.1875,60.9375,-57.8125,0
10250,15.375,71.375,-54.1875,0
10270,12.75,80.125,-45.6875,0
10290,8.5625,87.5625,-34.75,0
10310,2.8125,95.4375,-21.9375,0
10330,3.875,96.3125,-11.5,0
10350,9.125,95.1875,-5.125,0
10370,6.9375,99.75,0.125,0
10390,1.9375,100.625,9.75,0
10410,-2.875,100.625,19.6875,0
10430,-7.125,100.625,32.625,0
10450,-17.25,100.125,51.8125,0
10470,-29.0625,94.8125,67.3125,0
10490,-25.625,87.0625,76.8125,0
10510,-14.8125,77.875,77.125,0
10530,-11.625,74,77.25,0
10550,-6.875,69.125,91.5625,0
10570,-10.3125,59.1875,104.938,0
10590,-17.4375,50.3125,107.875,0
10610,-25.9375,42.375,111.25,0
10630,-28,28.5625,109.938,0
10650,-24.25,16.875,98.875,0
10670,-15.375,7.9375,97.75,0
10690,-11.5,-3.25,98.625,0
10710,-10.375,-14.375,84.0625,0
10730,-6.75,-25,72.625,0
10750,-8.25,-36.625,70.6875,0
10770,-10.3125,-46,73.125,0
10790,-8.875,-54.125,63.3125,0
10810,-7.875,-59.375,48.1875,0
10830,-7.8125,-61.5,43.25,0
10850,-6.25,-64.4375,38.5625,0
10870,-1.9375,-63.0625,26.8125,0
10890,-0.8125,-58.9375,19.1875,0
10910,-5.5,-56.9375,16.1875,0
10930,-7.875,-56.9375,10,0
10950,-8.125,-58.625,2.375,0
10970,-11.75,-55.6875,-2.25,0
10990,-8,-52,-3.875,0
11010,-7.25,-53.125,-5.4375,0
11030,-9.9375,-53.625,-7.8125,0
11050,-12.625,-51.6875,-9.125,0
11070,-11.5,-45.1875,-9.6875,0
11090,-11.1875,-39.9375,-11.375,0
11110,-10.5625,-36.5,-11.4375,0
11130,-11.625,-32,-10.625,0
11150,-11.3125,-26.0625,-9.9375,0
11170,-9.875,-17.9375,-13.125,0
11190,-3.375,-11.375,-13.1875,0
11210,2.9375,-11.8125,-10.5,0
11230,4.9375,-8.9375,-9.875,0
11250,5.25,-4.375,-8.5625,0
11270,3.875,-1.75,-7.4375,0
11290,3.6875,-0.5,-5.0625,0
11310,4.8125,0.5625,-2.875,0
11330,5.6875,1.375,-4.375,0
11350,6.375,3,-6.0625,0
11370,6.3125,4.1875,-5.3125,0
11390,4.625,5.5,-4.875,0
11410,3.375,5.9375,-5.75,0
11430,3,6.25,-7.125,0
11450,3.625,7.5625,-8.125,0
11470,4.3125,7.5625,-9.75,0
11490,4.9375,7.5625,-11.625,0
11510,3.875,8.125,-11.25,0
11530,1.5,7.375,-10.125,0
11550,1.75,7.25,-10.9375,0
11570,3.0625,6.6875,-11.4375,0
11590,2.75,6.0625,-10.5,0
11610,1.8125,5.875,-7.9375,0
11630,1,5.375,-6,0
11650,-0.5625,5.625,-5.875,0
11670,-0.125,6.3125,-6.125,0
11690,1.3125,4.75,-5.125,0
11710,2,3.6875,-3.3125,0
11730,1.875,3.6875,-1.6875,0
11750,2.5625,3.6875,-1,0
11770,3.3125,3.6875,-1.375,0
11790,3.9375,4.25,-0.375,0
11810,3.75,4.625,1.1875,0
11830,3.8125,4.8125,2.4375,0
11850,3.375,4.875,3.5,0
11870,4.625,5.375,3.0625,0
11890,4.8125,5.375,2.6875,0
11910,3.4375,5.9375,3.625,0
11930,2.3125,5.9375,4.8125,0
11950,1.5625,6,3.9375,0
11970,2.5625,6.75,3,0
11990,4.3125,6.5,3.8125,0
12010,3.6875,6.0625,5.3125,0
12030,1.9375,5.9375,5.5625,0
12040,1.125,5.8125,4.125,0
12060,1.8125,6.5,4.25,0
12080,2,6.6875,5.9375,0
12100,3.4375,6.75,5.4375,0
12120,2.75,7.0625,4.9375,0
12140,2.5,9.1875,5.3125,0
12160,1.5,10.75,5.625,0
12180,1.875,9.75,6.3125,0
12200,2.5,9.125,5.625,0
12220,2.1875,9.875,4.625,0
12240,1.375,10.375,5.4375,0
12260,-0.625,11.125,6.875,0
12280,-1.1875,11.125,7.375,0
12300,-1.125,10.6875,6.5625,0
12320,-0.0625,10.9375,6.375,0
12340,1.6875,10.8125,6.5625,0
12360,1.375,10.9375,6.6875,0
12380,-0.8125,11.5625,6.375,0
12400,-1.375,12.0625,4.5,0
12420,0.5625,11.4375,3.875,0
12420,1.625,10.625,3.625,0
12440,2.75,10.5,3.3125,0
12460,0.9375,11.0625,3.4375,0
12480,1.625,10.9375,2.6875,0
12500,2.125,10.5,2.375,0
12520,2.1875,10.5625,1.875,0
12540,1.625,10.5,0.5625,0
12560,2.1875,11.0625,0.1875,0
12580,2.8125,11.3125,1.1875,0
12600,3.3125,11.6875,1.1875,0
12620,4.125,11.6875,0.375,0
12640,3.25,13.6875,-0.3125,0
12660,3.625,13.75,0.3125,0
12680,4.375,14.0625,0.875,0
12700,4.3125,12.6875,2.3125,0
12720,4.125,12.1875,1.8125,0
12740,4.75,11.375,0.0625,0
12760,6.6875,9.875,-1.3125,0
12780,6.75,8.5,-0.875,0
12800,7.375,7.875,-0.3125,0
12820,7.75,7.5,0.0625,0
12840,7.625,7.5625,0.125,0
12860,9.625,8.125,1.5,0
12880,8.9375,7.9375,3.0625,0
12900,7.75,9.1875,4.6875,0
12920,7.625,11.125,7.4375,0
12940,8.1875,13.375,10.75,0
12960,11.4375,17,15.1875,0
12980,11.375,20.3125,19.5,0
13000,14.75,27.375,23.125,0
13020,18.3125,33.4375,30.8125,0
13040,15.9375,36.3125,44.0625,0
13060,9.9375,39.125,48.375,0
13080,5.25,45.5625,49.375,0
13100,4.4375,52.1875,56.375,0
13120,5,55,63.75,0
13140,-0.75,55.0625,54.8125,0
13160,4.75,60.25,45.75,0
13180,5.25,61.4375,45.25,0
13200,9.3125,60.875,43.6875,0
13220,14.6875,61,37.5,0
13240,18.75,58.875,32.5,0
13260,20.875,53.9375,29.6875,0
13280,14.6875,47.75,29.6875,0
13300,-25.625,31.25,60.625,0
13320,-60.0625,17.6875,67.375,0
13340,-38.1875,38.8125,27.5625,0
13360,-20.875,38.8125,11.25,0
13380,-0.6875,9.375,6.75,0
13400,-10.5625,-9.6875,-7.5,0
13420,-3.125,-17.4375,0.875,0
13440,-2.8125,-11.375,15.625,0
13460,0.6875,-1.5625,13.875,0
13480,-2.9375,3.6875,3.8125,0
13500,-15.3125,6.0625,-2.5,0
13520,-16.0625,-1.0625,2.6875,0
13540,-11.5625,-6.0625,5.75,0
13560,-4,-5.3125,0.4375,0
13580,6,-3.0625,-2.1875,0
13600,10.25,-4.125,-0.25,0
13620,4.625,-4.8125,-0.5,0
13640,-0.375,-6.9375,-1.1875,0
13660,0.5625,-10.25,1.1875,0
13680,2.0625,-11.3125,0.3125,0
13700,6.3125,-9.4375,-1.0625,0
13720,8,-7.25,0.375,0
13740,7,-5.4375,-0.25,0
13760,5.1875,-4.875,-0.6875,0
13780,1.8125,-3.1875,-1.25,0
13800,0.4375,-0.4375,-2.4375,0
13820,1.6875,1,-3.875,0
13840,3.25,-0.0625,-3.9375,0
13860,3.1875,-1.5625,-3.6875,0
13880,4.125,-2.625,-3.3125,0
13900,4.5625,-2.5,-2.8125,0
13920,4,-2.1875,-2,0
13940,3.25,-2.125,-0.8125,0
13960,2.9375,-1.5625,0,0
13980,3.4375,-1.1875,-0.5,0
14000,3.25,-1.9375,0.25,0
14020,3.4375,-1.875,1,0
14040,2.6875,-1.125,1.375,0
14060,0.0625,-1.1875,1.5625,0
14080,-2.9375,-1.3125,1.0625,0
14100,-3.8125,-0.9375,-0.125,0
14120,-2.9375,-1.0625,-1.0625,0
14140,-0.5625,-0.625,-1.3125,0
14160,0.875,0.1875,-1.375,0
14180,0.8125,0.3125,-1.375,0
14200,-0.3125,-0.125,-0.875,0
14220,-1.1875,-0.4375,-0.3125,0
14240,-1.0625,-0.125,-0.1875,0
14260,-1.0625,0,0.0625,0
14280,-0.875,-0.25,0.1875,0
14300,-0.75,-0.25,-0.1875,0
14320,-1.375,-0.25,0.0625,0
14340,-1.4375,0.0625,0.875,0
14360,-1.3125,0.3125,0.8125,0
14380,-0.8125,0.1875,0.25,0
14400,-0.5625,-0.1875,0.1875,0
14420,-0.25,-0.5,0.3125,0
14440,-0.8125,-0.8125,0.5,0
14460,-0.4375,-0.6875,0.25,0
14480,0.3125,-0.875,0.25,0
14500,0.6875,-1.125,0.3125,0
14520,0.875,-1.125,0.0625,0
14540,0.25,-1.1875,0.0625,0
14560,0.8125,-1.3125,0.125,0
14580,0.625,-1.375,0.0625,0
14600,0.5,-1.0625,0.125,0
14610,0.75,-1,0.125,0
14630,1,-1.125,0.125,0
14650,1.1875,-1.1875,0.1875,0
14670,1.375,-0.8125,0.125,0
14690,0.8125,-0.75,0.4375,0
14710,0.5,-0.9375,0.6875,0
14730,0,-0.875,0.4375,0
14750,0.125,-0.9375,0.4375,0
14770,0.5,-1.0625,0.125,0
14790,0.5,-0.8125,0.25,0
14810,0.4375,-0.6875,-0.0625,0
14830,0.1875,-0.375,0,0
14850,-0.25,-0.5,0.0625,0
14870,-0.6875,-0.375,-0.0625,0
14890,-0.5625,-0.375,-0.1875,0
14910,-0.6875,-0.25,-0.0625,0
14930,-0.375,-0.25,0.1875,0
14950,0,-0.4375,0,0
14970,0.375,-0.625,0.0625,0
14990,0.3125,-0.625,0.25,0
15010,-0.3125,-0.5625,0.25,0
15030,-0.8125,-0.4375,0.0625,0
15050,-0.4375,-0.375,0.125,0
15070,-0.0625,-0.5,0.4375,0
15090,-0.0625,-0.5,0.4375,0
15110,-0.1875,-0.625,0.5,0
15130,-0.1875,-0.5,0.6875,0
15150,-0.0625,-0.625,0.3125,0
15170,-0.875,-0.8125,0.25,0
15190,-0.3125,-0.5625,0.375,0
15210,0.5,-0.75,0.1875,0
15230,0.125,-1,0.25,0
15250,0,-0.75,0.3125,0
15270,0.3125,-0.625,0.0625,0
15290,0.1875,-0.9375,0.0625,0
15310,0.5625,-0.5,0.375,0
15330,0.875,-0.5625,0.875,0
15350,0.6875,-0.875,0.75,0
15370,0.3125,-0.875,0.8125,0
15390,0.125,-0.75,0.375,0
15410,0.875,-0.75,0.1875,0
15430,0.6875,-1.125,-0.125,0
15450,0.125,-1.25,-0.5,0
15470,0.5,-1.0625,0.0625,0
15490,0.5625,-1.25,0.6875,0
15510,0.8125,-1.0625,1.1875,0
15530,-0.4375,-0.0625,3.0625,0
15550,-1.5625,-0.9375,5.5625,0
15570,0.75,-3.5,7.75,0
15590,-6.125,-2.1875,14.8125,0
15610,-1.875,-4,18.6875,0
15630,4.3125,-9.75,13.3125,0
15650,-3,-16.1875,7.0625,0
15670,-7.125,-20.1875,7.0625,0
15690,-13.875,-22.8125,12.25,0
15710,-26.375,-24.5625,16.8125,0
15730,-38.875,-24.1875,18.8125,0
15750,-46.4375,-13.875,16.25,0
15770,-33.3125,-11.6875,12.625,0
15790,-22.375,-13.9375,31.4375,0
15810,-26.75,-15.8125,36,0
15830,-37.375,-17.8125,29.3125,0
15850,-40.6875,-18.375,27.9375,0
15870,-37.75,-20.8125,27.625,0
15890,-32.375,-24.625,27.3125,0
15910,-29.625,-25.875,23.625,0
15930,-32.125,-24.375,19.5,0
15950,-25.375,-22.5,20.25,0
15970,-16.3125,-18,18.0625,0
15990,-15.125,-14.4375,10.125,0
16010,-10.1875,-14.0625,4.9375,0
16030,-4.625,-12.1875,1.75,0
16050,5.4375,-12.75,-1.25,0
16070,1.125,-17.4375,-2.9375,0
16090,-0.6875,-20.25,-8.625,0
16110,4,-20.0625,-10.125,0
16130,13.25,-17.0625,-20.25,0
16150,21.5625,-17.3125,-25.6875,0
16170,20.4375,-16.75,-12.0625,0
16190,11.6875,-15.4375,-7.75,0
16210,7.5625,-13.75,-14.625,0
16230,5.5,-10.8125,-17.5625,0
16250,11.9375,-12.0625,-20.25,0
16270,17.4375,-13.625,-25.4375,0
16290,12.125,-18.875,-19.0625,0
16310,1.0625,-21.5,-15,0
16330,-7.9375,-17.5,-24.375,0
16350,-13.75,-12.5625,-44.1875,0
16370,-1.3125,-9.875,-51.1875,0
16390,20.1875,-8.9375,-56.3125,0
16410,31.375,-9.625,-64.5625,0
16430,32.375,-7,-64.4375,0
16450,27.6875,-1.8125,-59.75,0
16470,15.5625,-1.875,-64.375,0
16490,3.625,0.6875,-72.9375,0
16510,14.4375,-5.625,-74.625,0
16530,29.375,-16.25,-79.125,0
16550,33.3125,-36.0625,-89.75,0
16570,25.6875,-47.625,-94.375,0
16590,20.6875,-60.5625,-107.5,0
16610,23.25,-73.125,-124.062,0
16630,12.8125,-88.9375,-130.438,0
16650,6.75,-104.125,-132.875,0
16670,-0.125,-123.938,-138.375,0
16690,-9.125,-141.812,-152.375,0
16710,-12,-139.625,-147.625,0
16730,-13.875,-135.812,-137.812,0
16750,-22.5,-138.25,-138.188,0
16770,-33.1875,-139.812,-134.312,0
16790,-33.5,-141.25,-117.188,0
16810,-34.0625,-145.938,-104.5,0
16830,-37.0625,-153,-103.125,0
16850,-40.625,-163.375,-98.3125,0
16870,-46.875,-173.375,-84.9375,0
16890,-36.75,-173.062,-74.6875,0
16910,-34.0625,-173.375,-57.4375,0
16930,-37.3125,-174.625,-42.875,0
16950,-42.8125,-177.375,-32.5625,0
16970,-38.1875,-170.125,-19.6875,0
16990,-43.5,-169.125,-16.75,0
17010,-45.125,-159.812,-23.875,0
17030,-42.8125,-148,-21.75,0
17050,-51,-135.625,-16.8125,0
17070,-48.25,-126.188,-24.75,0
17090,-43.6875,-107.125,-29.0625,0
17110,-47.9375,-94.4375,-20.0625,0
17130,-47.0625,-74.625,-17.5,0
17150,-33.5625,-52.125,-12.6875,0
17170,-35.25,-44.5,-4.125,0
17180,43.75,-193.438,124.25,0
17200,100.438,-54.5625,22.25,0
17220,57.125,-9.1875,1.9375,0
17240,0.5625,4,-9,0
17260,-36.6875,5.4375,-7.6875,0
17280,-34.375,5.5625,-15.75,0
17300,-17.125,-0.375,-16.4375,0
17320,-2.3125,1.75,-10,0
17340,3.3125,2.6875,-9.5,0
17360,-14.375,-2.375,-6.375,0
17380,-20.8125,-4.125,-3.375,0
17400,-15.4375,-6.8125,-2.4375,0
17420,-12,-6.8125,-1.3125,0
17440,-11.5,-5.0625,3.6875,0
17460,-18,-7.5,2.6875,0
17480,-16.4375,-10.5625,-3.25,0
17500,-13.125,-10,-2.9375,0
17520,-10.875,-7.75,-4.125,0
17540,-13.375,-7.5,-4.9375,0
17560,-10.8125,-9.25,-3.375,0
17580,-3.25,-8.875,-3.0625,0
17600,1.0625,-7.5625,-1.375,0
17620,-2.8125,-6.75,0.625,0
17640,-3.1875,-4.5,2.5625,0
17660,-6,-8.1875,5.625,0
17680,-0.9375,-8.625,6.0625,0
17700,7.0625,-7.375,7,0
17720,0.9375,-5.875,4.9375,0
17740,0.875,-2,0.875,0
17760,1.125,0.6875,-1.3125,0
17780,-2,-1.5,-1.1875,0
17800,-4.375,-1.25,-0.4375,0
17820,-5.5625,1.5625,1.9375,0
17840,-2.3125,2.9375,4.6875,0
17860,3.8125,9.1875,4.3125,0
17880,5.75,8.1875,0.4375,0
17900,-1.125,4.5625,-6.9375,0
17920,-5.75,5.5625,-8.3125,0
17940,-13.9375,5.1875,-7.625,0
17960,-1.25,3.6875,-7.8125,0
17980,4.5,3.625,-2.5,0
18000,2.75,5.5625,0.0625,0
18020,2.5,6.8125,4.8125,0
18040,-0.8125,5.9375,5,0
18060,1.375,5.125,0.6875,0
18080,8.875,7.5,5.625,0
18100,5.625,8.8125,7.4375,0
18120,0.5,15,5.0625,0
18140,-1.75,21,4.75,0
18160,3.875,14.625,2.0625,0
18180,2.8125,6.375,-3.3125,0
18200,1.8125,-0.8125,-7.0625,0
18220,0.1875,-9.4375,-9.0625,0
18240,-2.625,-16.125,-8.5,0
18260,-1.3125,-21.5,-8.9375,0
18280,-0.4375,-26.25,-9.5625,0
18300,1.375,-28,-4.6875,0
18320,3.5625,-25.5625,-0.5625,0
18340,7.5625,-23.5625,1.3125,0
18360,10.5,-24.875,1.3125,0
18380,7.0625,-23,2.6875,0
18400,5.1875,-17.875,4.5,0
18420,12.25,-14.5625,4.125,0
18440,14.25,-11.375,0.1875,0
18460,9.125,-11.75,-3.25,0
18480,3.4375,-12.6875,-1.25,0
18500,0.6875,-8.1875,1.6875,0
18520,4.6875,-10.25,1.25,0
18540,5.9375,-9.5625,1.75,0
18560,4.375,-1.25,0.125,0
18580,-0.25,4.375,-0.125,0
18600,1.3125,12.0625,3.25,0
18620,6.6875,21.875,6.75,0
18640,4.25,22.4375,11.1875,0
18660,-0.875,17.625,14,0
18680,-0.3125,15.625,10.875,0
18700,1.1875,13.9375,8.25,0
18720,1.375,8.375,8.75,0
18740,2.5625,4.625,7.4375,0
18760,-5.3125,1.6875,7.75,0
18780,-8.125,0.5,2.625,0
18800,-6.6875,0.5,3.125,0
18820,-6.4375,1.5,3.25,0
18840,-1.625,6.75,1.25,0
18860,-2.5,12.375,3.5625,0
18880,-7.4375,16.9375,3.8125,0
18900,-10.875,20.1875,2.1875,0
18920,-12.6875,25.6875,2.5625,0
18940,-7.75,24.5,2.3125,0
18960,-1.625,21.1875,4.1875,0
18980,-4.875,9.9375,4.375,0
19000,-3.5,1.0625,5.5625,0
19020,0,-0.125,0.5,0
19040,-4.375,5.75,-11.25,0
19060,-12.6875,15.875,-11.0625,0
19080,-7.75,17.8125,-7.0625,0
19100,0.25,17.6875,-5.3125,0
19120,0.3125,18.375,-2.0625,0
19140,-0.4375,20.25,1.75,0
19160,1.25,22,4.625,0
19180,-1.625,23.125,5.25,0
19200,-4.0625,22.75,5.8125,0
19220,-3.3125,23.0625,5.0625,0
19240,-5.5,24.625,4.875,0
19260,-12.625,27.625,8.25,0
19280,-12.6875,27.625,9.5625,0
19300,-13.375,25.6875,11.75,0
19320,-21.3125,24.1875,14,0
19340,-15.1875,22.375,11.8125,0
19360,-6.625,18.4375,12.8125,0
19380,-13.375,12.625,13.5,0
19400,-13.375,13.75,8.0625,0
19420,-5.375,5.4375,9.4375,0
19440,1.1875,-4.6875,7.6875,0
19460,6.25,-10.375,1.25,0
19480,-6.8125,-10,-0.375,0
19500,-11.9375,-6.4375,-2.875,0
19520,-8.4375,-3.75,-7.6875,0
19540,-8.1875,-0.9375,-6.4375,0
19560,-13.125,2.375,-2.4375,0
19580,-11.4375,9.625,5,0
19600,-0.6875,12.5,13.1875,0
19620,3.75,10.5625,11.375,0
19640,-2.625,5.9375,11.25,0
19660,-9.0625,4.4375,13.875,0
19680,-3.8125,6,10.0625,0
19700,2,6.3125,5.8125,0
19720,5.625,8.9375,3.25,0
19740,4.5,8.375,4.125,0
19750,4.5,9.125,1.6875,0
19770,5.9375,6.625,-3,0
19790,6.5,0.125,-4.0625,0
19810,9.0625,-4.25,3.3125,0
19830,7.75,-4.25,6.0625,0
19850,7,-1.5625,3.875,0
19870,1.375,-2.25,5.3125,0
19890,4.25,-5.625,6.5625,0
19910,4.6875,-6.5,1.625,0
19930,1.25,-4.8125,-1.5625,0
19950,-1.4375,-5.3125,-1.3125,0
19970,1.75,-7.1875,-1.5625,0
19990,2.875,-5.8125,-2.1875,0
20010,-4.125,-3.4375,-0.8125,0
20030,-6.625,-2.6875,1.9375,0
20050,-2.25,-4.4375,3.9375,0
20070,-0.625,-6.8125,0.75,0
20090,-1.25,-6.375,-2.9375,0
20110,0,-6.4375,-1.9375,0
20130,-1.4375,-7.0625,-0.8125,0
20150,-1.5625,-4.9375,-7.125,0
20170,-2.375,-3.5625,-7.5,0
20190,-5.5625,-4.0625,-3.625,0
20210,-4.4375,-4.4375,-2,0
20230,-4.25,-5.125,-0.625,0
20250,-3.625,-4.125,-1.25,0
20270,-3.0625,-4.125,-2.1875,0
20290,-2.625,-4.6875,-5,0
20310,-3.1875,-4.5,-6.5625,0
20330,-2.8125,-4.125,-4.4375,0
20350,2.9375,-4.3125,-4.8125,0
20370,1,-3.6875,-6.1875,0
20390,-2.875,-3.3125,-5.8125,0
20410,-3.375,-2.5,-5.375,0
20430,-0.75,-1.8125,-1.375,0
20450,0.875,-1.375,0.375,0
20470,0,-1.0625,2.5,0
20490,-1.75,-1.875,3.125,0
20510,-1.6875,-1.75,3.75,0
20530,-1.125,-0.875,2.5625,0
20550,2.6875,2.125,-0.4375,0
20570,4.8125,1.3125,-2,0
20590,4.5625,-2.1875,-1.1875,0
20610,-1.4375,-3.3125,2.25,0
20630,1.3125,0.5,-2.9375,0
20650,3.8125,0.125,-5.1875,0
20670,-5.125,-2.3125,-2.3125,0
20690,-7.25,-4.5,-2.125,0
20710,-12.9375,-8.8125,-0.875,0
20730,-5.4375,-10.75,-5.0625,0
20750,-3.4375,-7.0625,-12.3125,0
20770,-12.375,-0.875,-12.0625,0
20790,-15,5.125,-5.0625,0
20810,-4.8125,6.875,1.1875,0
20830,8.375,1.375,7.125,0
20850,6.375,2.625,11.6875,0
20870,2.5,1.0625,6.4375,0
20890,12.875,4.4375,7.625,0
20910,18.8125,3.75,12.9375,0
20930,20.9375,0.25,8.5625,0
20950,13.75,-3.375,7.125,0
20970,14.25,-4.25,10.875,0
20990,23.8125,-1.4375,14.875,0
21010,22,-1.4375,14.5625,0
21030,11.625,-3.75,9.9375,0
21050,8.0625,-5.125,9.3125,0
21070,12.625,-5.9375,13.6875,0
21090,18.0625,-4.125,16.8125,0
21110,17.6875,-6.5625,15.75,0
21130,13.625,-9.875,16.6875,0
21150,13.875,-14.625,18.375,0
21170,11.9375,-24.1875,19.375,0
21190,13.375,-35.375,9.875,0
21210,13.375,-37.25,5.75,0
21230,34.4375,-29.875,2,0
21250,22.5625,-11,-3.4375,0
21270,0.125,-1.5,-2.5625,0
21290,-12.25,-3.0625,-2,0
21310,-2.0625,-0.875,4.5625,0
21330,-5.3125,3.1875,7.4375,0
21350,-11.1875,10.5,5.8125,0
21370,-17.8125,17.1875,5.9375,0
21390,-16,19.125,5.25,0
21410,-17,17.125,5.1875,0
21430,-20.0625,15,4.1875,0
21450,-18.375,14,1,0
21470,-21.875,12.125,2.8125,0
21490,-28.1875,10.125,6.875,0
21510,-29.1875,5.375,8.25,0
21530,-22.0625,3.3125,2.5625,0
21550,-28.9375,4.0625,-4.125,0
21570,-41.5625,7.25,-1.8125,0
21590,-40.875,6.375,3.6875,0
21610,-33.5,3.25,1.5,0
21630,-27.5625,3.375,-4.6875,0
21650,-28.625,4,-9.5625,0
21670,-28.75,4.625,-10.75,0
21690,-23.0625,2.8125,-11.4375,0
21710,-17.1875,0.9375,-11.5625,0
21730,-9.75,3.8125,-13.9375,0
21750,-11.375,4.25,-20.375,0
21770,-11.3125,3.75,-26.6875,0
21790,-12.9375,2.0625,-25.75,0
21810,-12.3125,3.3125,-24.6875,0
21830,-15.3125,-2.25,-26.5,0
21850,-17.0625,-2.25,-22.8125,0
21870,-10.625,-3.4375,-20.0625,0
21890,-15.125,-3.9375,-17.9375,0
21910,-20.125,-2.3125,-16,0
21930,-20.0625,-4,-8.6875,0
21950,-17.75,-7.375,-6.8125,0
21970,-16.5,-12.25,-9.9375,0
21990,-21.1875,-14.5625,-10.4375,0
22010,-24.875,-13.375,-8.6875,0
22030,-20.4375,-11.8125,-3.25,0
22050,-18,-14.0625,1.375,0
22070,-12.9375,-11.6875,2.6875,0
22090,-12.5625,-13.3125,2.25,0
22110,-5.75,-13.6875,4.0625,0
22130,-5.5625,-13.3125,7.875,0
22150,-6.375,-11.3125,9.875,0
22170,-6.4375,-9.5625,7.3125,0
22190,-4.125,-8.1875,5.5,0
22210,-2.75,-7.125,4.75,0
22230,2.875,-6.8125,3.375,0
22250,2.3125,-6.4375,2.625,0
22270,1.25,-6.3125,-0.875,0
22290,4.3125,-6.0625,-5.25,0
22310,9.75,-5.5,-8.375,0
22320,12.3125,-6.5,-10.3125,0
22340,18.1875,-3.5625,-13.375,0
22360,22.1875,-1.25,-15.4375,0
22380,25.75,5.6875,-17.8125,0
22400,16.25,9.4375,-7.6875,0
22420,19.375,14.625,-0.5625,0
22440,32.4375,30.8125,5.125,0
22460,48,47.1875,10.0625,0
22480,46.6875,57.875,25.4375,0
22500,41.625,74.4375,40.75,0
22520,64.75,97.625,55.875,0
22540,88.3125,128.688,72.5625,0
22560,92.5,144.312,117.375,0
22580,56.5,138.875,159.312,0
22600,66.25,159.688,192.812,0
22620,99.1875,190.375,218.125,0
22640,106.125,186.062,231.562,0
22660,102.938,183.625,228.875,0
22680,99.8125,187.562,241.062,0
22700,101.938,196.188,260.438,0
22720,102.938,173,240.312,0
22740,77,148,208.562,0
22760,48.3125,158.5,221.312,0
22780,30.0625,143.5,253.125,0
22800,1,107.5,222.5,0
22820,-14.8125,90.8125,179.062,0
22840,-18.8125,79.6875,163.438,0
22860,2,63.25,128,0
22880,12.3125,52.375,86.1875,0
22900,38.875,41.625,71.625,0
22920,51.5,28.5,68,0
22940,51.75,20.875,55.625,0
22960,27.0625,14.1875,42.0625,0
22980,8.5625,1.75,34.3125,0
23000,-13.8125,-16.875,34.4375,0
23020,-30.5,-29.5,36.5,0
23040,-23.375,-37.1875,28.75,0
23060,-11.875,-38.75,19.1875,0
23080,-4.9375,-32.1875,20.75,0
23100,-7.1875,-29.625,23.8125,0
23120,-22.625,-24.8125,31.3125,0
23140,-20.9375,-12.3125,21.9375,0
23160,-27.4375,-8.3125,2.75,0
23180,-20.1875,-5.9375,5.4375,0
23200,8.75,-3.625,-1.875,0
23220,19.1875,-4.875,-10.125,0
23240,27.4375,-2.625,-2.25,0
23260,23.25,0.25,-1.875,0
23280,15.4375,3.75,-8.9375,0
23300,19.625,13,-7.9375,0
23320,19.375,20.875,-6.3125,0
23340,17.0625,26.125,-2.375,0
23360,27.875,27.75,13.0625,0
23380,31.6875,26.4375,25,0
23400,13.3125,27.875,12.6875,0
23420,16.875,30.8125,2.625,0
23440,11.375,24.5,11.25,0
23460,-5.25,4.9375,9.1875,0
23480,-13,-1.3125,-1,0
23500,0.625,0.9375,0.0625,0
23520,21.5625,7,7.4375,0
23540,13.1875,5,7.375,0
23560,1.5625,-2.25,-10.9375,0
23580,-3.25,-4.375,-21.0625,0
23600,-6,2.125,-11.375,0
23620,2.375,1.5625,-13.8125,0
23640,6.625,-6.0625,-37.3125,0
23660,30.25,-11,-52.125,0
23680,63.125,-4.0625,-55.375,0
23700,66.875,4.125,-55.125,0
23720,57.125,3,-49.3125,0
23740,36.3125,-11.3125,-44,0
23760,13,-19,-54.1875,0
23780,26.625,-19.75,-61.625,0
23800,34.75,-29.375,-46.5,0
23820,47.125,-47.6875,-48.125,0
23840,65.4375,-55.5,-62.1875,0
23860,66.6875,-65.6875,-44.75,0
23880,40.75,-70.75,-28.3125,0
23900,4.0625,-64.1875,-24.9375,0
23920,5.5,-63.75,-30.875,0
23940,17.25,-76.125,-40.75,0
23960,37.25,-88.5,-41.1875,0
23980,44.375,-74.625,-31.75,0
23990,10.75,-54.0625,-22.75,0
23990,-3.8125,-55,-17.625,0
24020,-9.5,-55.375,-19.125,0
24050,-15.25,-40.4375,-17.0625,0
24070,-2.5,-47,-13.4375,0
24090,-5.1875,-35.1875,-13.5,0
24110,0.375,-8.625,-21.75,0
24130,-13.3125,-10.625,-17,0
24150,-12.1875,-15.6875,-6,0
24170,-0.3125,-19.75,-8.5625,0
24190,8.375,-21.75,-7.5,0
24210,2.8125,-17.3125,0.6875,0
24230,-9,-11.375,7.9375,0
24250,-16.6875,-7,11,0
24270,-11.375,0.875,10.75,0
24290,-3.5625,1.0625,7.5625,0
24310,-6.625,-3.0625,15,0
24330,-1.0625,-7.0625,10.375,0
24350,0.8125,-2.6875,8.5,0
24370,4.0625,-2.375,8,0
24390,6.75,-2.3125,7.4375,0
24410,0.6875,-1.375,10.5,0
24430,-5.875,0.9375,7.625,0
24450,-2.625,3.6875,0.0625,0
24470,4,2.5625,-1.9375,0
24490,7.25,-0.5625,4.5,0
24510,2,0.1875,6.9375,0
24530,-4.3125,1.3125,6.25,0
24550,-2.9375,1.375,2.25,0
24570,-3.8125,1.875,3.4375,0
24590,-14.9375,4.875,10.5,0
24610,-10.1875,2.6875,13.3125,0
24630,0.0625,-0.1875,5.3125,0
24650,2.125,0.1875,-1.1875,0
24670,5.5,-2,-0.5,0
24690,-9.0625,-4.5625,9.6875,0
24710,-1.0625,-1.25,12.0625,0
24730,-12.0625,3.4375,6.0625,0
24750,7.375,0.875,0.0625,0
24770,4.75,-1.625,-0.5625,0
24790,4.4375,-4.9375,-4.375,0
24810,12,-4.1875,-8.375,0
24830,3.875,2.125,-4,0
24850,-3,4.6875,-6.3125,0
24870,7,7.875,-9.0625,0
24890,-3.8125,16.0625,-5.875,0
24910,-25.75,14.375,-4.375,0
24930,-14.3125,7.5625,-6.5,0
24950,8.3125,3.3125,-5.625,0
24970,7.25,1.1875,-3.5625,0
24990,3.0625,-1.375,-2.5,0
25010,8.5625,-1.0625,-5.0625,0
25030,0.8125,-1.5625,-4.4375,0
25050,-7.4375,8.9375,-7.6875,0
25070,-3,-3.5625,-10.125,0
25090,1.1875,-3.375,-8.9375,0
25110,2.9375,-2.3125,-8,0
25130,3.5,-1.8125,-8.0625,0
25150,3.1875,-3,-6.5625,0
25170,1.5,-1.5,-10.1875,0
25190,-2.6875,-3.3125,-8.5,0
25210,8.25,-2.125,-6.3125,0
25230,-1.25,0.5625,-5.75,0
25250,-8,-0.6875,-4.9375,0
25270,2.625,-1.4375,-3.5,0
25290,10.5625,-0.75,-3.5,0
25310,2.9375,1.1875,-4,0
25330,-6,1.0625,-2.0625,0
25350,0.625,0.5,-0.1875,0
25370,5.9375,4,-1.75,0
25390,-3.6875,9.4375,1.8125,0
25410,-5.875,5.375,2.375,0
25430,-5.875,4.25,2.6875,0
25450,-6.125,4.3125,2,0
25470,-2.625,4.8125,1.625,0
25490,1.1875,4.3125,1.5625,0
25510,1.8125,3.375,1.25,0
25530,1.5625,3,1.4375,0
25550,-0.3125,2.9375,1.375,0
25570,-0.875,2,0.625,0
25590,-0.6875,1.25,1,0
25610,-1.25,1.0625,1.625,0
25630,-1.25,0.5,1.625,0
25650,-0.625,-0.0625,-0.125,0
25670,0.8125,0.6875,-0.9375,0
25690,1.0625,0.5625,-1.5625,0
25710,0.625,-0.3125,-2.125,0
25730,0.1875,-0.4375,-1.1875,0
25750,0.125,0.5,-0.9375,0
25770,0.125,1.125,-1.8125,0
25790,0.3125,1.125,-0.9375,0
25810,-1.375,1.9375,-0.1875,0
25830,-0.875,2.75,0.1875,0
25850,-0.625,3.0625,0.625,0
25870,-0.6875,2.4375,0.75,0
25890,-0.25,2.25,0.9375,0
25910,-0.25,2.9375,0,0
25930,1.8125,3.25,-0.5625,0
25950,2.375,2.6875,-0.4375,0
25970,2.375,2.375,0.375,0
25990,1.9375,2.5625,1.8125,0
26010,2.4375,3.0625,1.6875,0
26030,2.0625,3.5,0.8125,0
26050,2.875,3.6875,1.6875,0
26070,1.8125,3.75,3.125,0
26090,1.3125,3.25,4.625,0
26110,0.625,3.625,7,0
26130,-1.125,3.875,9.375,0
26150,-1.875,4.625,10.9375,0
26170,-0.875,5.4375,9.8125,0
26190,0.6875,7.4375,9.5,0
26210,1.8125,8.6875,11.5,0
26230,5.375,9.4375,11.1875,0
26250,7.25,9.4375,11.375,0
26270,7.3125,8.625,9.6875,0
26290,6.625,8.4375,7.3125,0
26310,8.3125,7.5625,5.1875,0
26330,9.0625,6.125,3.875,0
26350,9.125,5.125,2.1875,0
26370,7.625,4.4375,2.5,0
26390,5.875,4.125,2.25,0
26410,5.5625,4.5625,0.1875,0
26430,5.375,4.4375,-0.6875,0
26450,4.25,4.1875,-1.0625,0
26470,3.9375,4.1875,-2.1875,0
26490,3.3125,3.75,-2.8125,0
26510,3.8125,3.375,-3.8125,0
26530,4.875,3.8125,-4.375,0
26550,3.3125,3.5,-3.375,0
26570,1.5625,2.375,-3.6875,0
26590,1.1875,1.875,-4.5,0
26610,2.375,1.3125,-5.375,0
26630,4.4375,1.1875,-5.9375,0
26650,5.3125,0.75,-6.0625,0
26670,5.5,0.25,-6.0625,0
26690,6.0625,1.0625,-5.6875,0
26710,6,1.1875,-5,0
26730,4.75,1.375,-3.875,0
26750,3.625,1.4375,-3.0625,0
26770,2.25,1.8125,-2.3125,0
26790,1.3125,1.75,-0.1875,0
26810,0.1875,2.3125,0.6875,0
26830,-1.375,2.25,0.6875,0
26850,-0.6875,2.1875,1.375,0
26870,-1.4375,1.125,4.25,0
26890,-2.4375,0.8125,5.625,0
26910,-2.5625,0.5,6.375,0
26930,-4.875,-1.5625,7.875,0
26950,-4.625,-3.875,7.625,0
26970,-4.625,-4.6875,6.4375,0
26990,-2.75,-5.75,7.5,0
27010,-1.4375,-7.75,9.125,0
27030,-3.1875,-9.125,11,0
27050,-6.4375,-10.9375,13.3125,0
27070,-8.875,-12.3125,12.9375,0
27090,-7.8125,-12.875,11.375,0
27110,-3.4375,-10.1875,6.8125,0
27130,0.5,-7.8125,0.625,0
27150,2.6875,-4.5625,-0.5,0
27170,4.0625,-4,6.375,0
27190,1.6875,-4.3125,7.8125,0
27210,1.625,-2.875,-0.25,0
27230,3.25,-1.5625,-6.8125,0
27250,6.0625,-0.125,-8.375,0
27270,9.4375,1.1875,-10.4375,0
27290,10.25,2,-14.8125,0
27310,10.25,3.25,-21.5,0
27330,10.5625,5.4375,-27.875,0
27350,9.5625,7.3125,-30.9375,0
27370,9.6875,8.9375,-32.625,0
27390,11.4375,9.3125,-36.875,0
27410,11.4375,10.6875,-40.4375,0
27430,13.0625,10.8125,-41.6875,0
27450,13.4375,10.6875,-43.5625,0
27470,11.625,11.4375,-44,0
27480,9.125,11.375,-44.75,0
27500,8.375,11.9375,-45.0625,0
27520,9.625,13.1875,-41.625,0
27540,11.3125,13.8125,-37.1875,0
27560,11.4375,12.375,-30.9375,0
27580,8.625,11.75,-24.625,0
27600,5.375,11.9375,-17.625,0
27620,1.25,12.9375,-10.75,0
27640,-1.6875,14.0625,-4.1875,0
27660,-1.5625,15.3125,2.0625,0
27680,-4.5,14.9375,7.1875,0
27700,-5,16.125,12.8125,0
27720,-4.9375,19,17.5,0
27740,-4.4375,21.8125,19.9375,0
27760,-1.8125,22.625,22.625,0
27780,-0.125,21.6875,25.375,0
27800,0,20.5625,27.5625,0
27820,0.5,18,29.9375,0
27840,-0.5625,14.75,31.625,0
27860,-3.5625,12.1875,32.1875,0
27880,-2.875,9.3125,31.4375,0
27900,-0.875,8.0625,27.6875,0
27920,2,7.375,24.9375,0
27940,-0.125,6.125,27.5625,0
27960,-5.5625,5.25,31.4375,0
27980,-8.8125,4.6875,30.8125,0
28000,-11.25,4.125,28.5625,0
28020,-12.4375,1.9375,30.1875,0
28040,-11.625,0.75,33.125,0
28060,-13.5625,0.4375,33.4375,0
28080,-15.25,1.6875,29.75,0
28100,-15.3125,1.9375,29.3125,0
28120,-12.625,1.75,31.1875,0
28140,-9.625,2.5625,27.5625,0
28160,-9.25,3.875,22.125,0
28180,-9.8125,5.375,18.125,0
28200,-7.625,7.75,15.6875,0
28220,-5.5,9.875,14.8125,0
28240,-2.1875,11.25,11.6875,0
28260,0.375,12.5625,8.875,0
28280,3.0625,12.0625,8,0
28300,2.0625,11.125,6.8125,0
28320,-0.1875,9.5625,5.375,0
28340,-2.625,8.125,4.125,0
28360,-2.5,7,3.3125,0
28380,-3.0625,5.125,3.3125,0
28400,-3.3125,3.0625,2.4375,0
28420,-3.875,2.125,0.375,0
28440,-3.8125,0.6875,-0.8125,0
28460,-3.3125,0.125,-0.875,0
28480,-2.5,-0.25,-0.5,0
28500,-1.0625,-0.6875,-0.125,0
28520,-1.125,-1.25,0.3125,0
28540,-1.3125,-1.4375,1.375,0
28560,-1.625,-1.6875,2.5625,0
28580,-3.4375,-1.4375,2.375,0
28600,-2.9375,-1.375,1.6875,0
28620,-1.5,-0.625,0.9375,0
28640,0.25,-0.0625,1.8125,0
28660,1.3125,-0.3125,2.8125,0
28680,0.8125,-0.1875,3.5625,0
28700,-0.9375,-0.75,5.0625,0
28720,-2.8125,-2.1875,7.375,0
28740,-3.4375,-4.3125,8.9375,0
28760,-4.875,-5.9375,8.125,0
28780,-7.1875,-7.5,9.5625,0
28800,-8.125,-9.75,10,0
28820,-8.4375,-10.625,10.1875,0
28840,-7.875,-11.5625,11.3125,0
28860,-8.8125,-12.875,12.125,0
28880,-8.875,-14.25,13.625,0
28900,-9.125,-15.75,13.5,0
28920,-7.25,-15.4375,11.9375,0
28940,-5.25,-14.8125,12.625,0
28960,-4.5625,-14.4375,13.125,0
28980,-3.9375,-14.0625,12.375,0
29000,-2.5625,-12.6875,11.6875,0
29020,-1.4375,-12.0625,10.25,0
29040,-1.625,-11.25,9.75,0
29060,-3.8125,-6.5,10.875,0
29080,-3.9375,0.375,5.6875,0
29100,2.5,0.8125,-0.1875,0
29120,4.125,-1.1875,1.4375,0
29140,-4.0625,-2.125,4.0625,0
29160,-9.25,-4.875,4.75,0
29180,-6.25,-8.1875,-0.5,0
29200,8,-11.5,-4.5,0
29220,9.6875,-12.5625,3.375,0
29240,-3.4375,-11.6875,11.375,0
29260,-7.3125,-13.5,10.6875,0
29280,1.5,-13.1875,6.3125,0
29300,10.1875,-8.375,2.25,0
29320,6.6875,-4.1875,3.9375,0
29340,-3.4375,-2.8125,3.0625,0
29360,-10.625,-4,-1.625,0
29370,-8.5625,-3.4375,-3,0
29390,0.5625,1.3125,-4.3125,0
29410,3.375,6.6875,-0.125,0
29430,-1.6875,9.5625,-1.5625,0
29450,-7.0625,8.4375,-5.4375,0
29470,-0.25,8.0625,-3.5625,0
29490,8.125,9.9375,-2.9375,0
29510,5.1875,6.6875,-8.125,0
29530,5.3125,0.75,-7.25,0
29550,2.8125,1.3125,-5.0625,0
29570,-1.125,3.3125,-3.3125,0
29590,-0.1875,3.875,1.75,0
29610,-1.6875,5.625,1.4375,0
29630,-1.25,2.6875,-1.25,0
29650,1.1875,-0.625,2.5,0
29670,2.0625,1.5625,4.75,0
29690,4.5625,2.0625,0.25,0
29710,5.4375,1.6875,-1.1875,0
29730,5.75,-0.3125,-1.4375,0
29750,7.625,-2.6875,-3.875,0
29770,6.4375,-5.625,-10.3125,0
29790,5.375,-7.8125,-16.375,0
29810,3.25,-11.5625,-15.125,0
29830,4.25,-12.875,-10.5,0
29850,2.75,-10.1875,-7,0
29870,3.625,-4.8125,-10.375,0
29890,0.875,1,-17.375,0
29910,0,0.4375,-20.3125,0
29930,0.3125,-3.75,-16.5,0
29950,4.8125,-6.25,-11.875,0
29970,4.375,-5.0625,-9.375,0
29990,2.25,-4.1875,-8.1875,0
30010,1.1875,-3.25,-6.8125,0
30030,1.1875,-2.0625,-5.3125,0
30050,0.75,0.25,-3,0
30070,2,3.1875,-0.9375,0
30090,2.1875,4.25,-0.0625,0
30110,2.25,4.1875,-0.5,0
30130,2.6875,4.75,-1.6875,0
30150,4.75,4.9375,-1.875,0
30170,5.5625,4.6875,-1.0625,0
30190,5.1875,4.375,-0.125,0
30210,3.875,3.75,-0.1875,0
30230,3.5,3.625,-1.125,0
30250,3.875,3.6875,-1.6875,0
30270,3.6875,4.125,-1.875,0
30290,3.125,4.625,-0.6875,0
30310,1.8125,5,-0.375,0
30330,2.1875,5.8125,0.125,0
30350,1.5,6.25,0.4375,0
30370,0.1875,7.1875,-0.5,0
30390,-1.0625,8.0625,-0.0625,0
30410,-1,8.8125,1.1875,0
30430,-0.9375,9.6875,1.6875,0
30450,0.25,9.75,2,0
30470,0.0625,10.3125,0.875,0
30490,-0.4375,11.3125,0.1875,0
30510,-1,12,1.25,0
30530,0.625,14.0625,2.875,0
30550,0.4375,15.75,3.75,0
30570,-1.8125,16.6875,4.25,0
30590,-2.75,17.375,3.625,0
30610,-3.3125,18.25,3.875,0
30630,0.25,20.5,4.3125,0
30650,-0.375,21.875,5.5625,0
30670,-1.75,22.875,7.3125,0
30690,-3.5,22.5625,9.3125,0
30710,-4.3125,21.5625,11.125,0
30730,-5.9375,20.5,10.25,0
30750,-6.9375,19.8125,7.6875,0
30770,-3.8125,18.6875,8.1875,0
30790,2.375,17.0625,9.875,0
30810,3.25,16.6875,9.9375,0
30830,2.25,16.0625,7.5,0
30850,1.75,13.875,6.1875,0
30870,4.0625,11.6875,7.3125,0
30890,2.625,11.4375,8.875,0
30910,0.5625,12.0625,7.5625,0
30930,0.375,12.5625,5.25,0
30950,2,13.3125,2.1875,0
30970,5.75,14.4375,2.5,0
30990,12.8125,13.8125,-0.375,0
31010,11.375,16.125,7.5,0
31030,13.875,14.5,8.3125,0
31050,16.1875,15.3125,9.1875,0
31070,12.125,15.125,7.25,0
31090,6.75,11.5,4.1875,0
31110,4.875,3.5,5.0625,0
31130,11.5,1.8125,6.125,0
31150,11.6875,4.6875,4.75,0
31170,4.625,6,1.625,0
31190,1.1875,4.875,1.5625,0
31210,2.8125,4.125,3.125,0
31230,6,4.9375,4.25,0
31250,5.125,4.3125,4.375,0
31270,2.6875,3.3125,3.4375,0
31290,3.3125,2.3125,1.875,0
31310,0.625,1.25,1.0625,0
31330,-3,1.1875,1.3125,0
31350,-4.8125,2.0625,1.75,0
31370,-4.0625,3.1875,1.8125,0
31390,-4.0625,3.6875,1.375,0
31410,-3.4375,3.875,0.3125,0
31430,-0.375,3.75,0.625,0
31450,0.4375,3.6875,1.1875,0
31470,-1.9375,3.5625,1.125,0
31490,-2.9375,2.625,0.5625,0
31510,-3.375,2.125,0.5,0
31530,-3.125,1.75,1.25,0
31550,-5.0625,1,1.8125,0
31570,-3.4375,0.9375,1.3125,0
31590,-4.625,0.6875,1.375,0
31610,-4.5,0.625,0.5625,0
31630,-4.5625,1.1875,0.625,0
31650,-5.625,1.6875,-0.125,0
31670,-4.75,1.3125,-0.4375,0
31690,-4.25,1,0,0
31710,-1.9375,1.0625,0.1875,0
31730,-0.9375,0.0625,0.625,0
31750,0.5625,-0.75,0.6875,0
31770,4.625,-1.5,-0.3125,0
31790,7.6875,-2.0625,-1.375,0
31810,8.125,-2.25,-2.25,0
31830,8.9375,-1.1875,-2.4375,0
31850,8.125,-1.5625,-1.5,0
31870,8.1875,-2,-0.6875,0
31890,7.8125,-2.75,0.1875,0
31910,9.9375,-2.6875,1.75,0
31930,10.625,-2.5625,2.5625,0
31950,9,-2.5,2.75,0
31970,8,-2.375,2.4375,0
31990,5.25,-2.0625,1.3125,0
32010,2.5,-2,0.3125,0
32030,1.0625,-1.75,-0.4375,0
32050,2.0625,-1.5625,-0.5,0
32070,3.4375,-3.125,-0.625,0
32090,3.3125,-3.1875,-2,0
32110,4,-1.9375,-2.0625,0
32130,4,-1.125,-1.375,0
32150,3.6875,-0.3125,-0.6875,0
32170,0.125,-0.3125,1.0625,0
32190,-0.125,-0.75,3.0625,0
32210,0.8125,-1.5625,4.1875,0
32230,-0.3125,-1.4375,4.4375,0
32250,-2.875,-1.25,2.6875,0
32270,-4.9375,-1,0.25,0
32290,-2.375,-0.875,-1.3125,0
32310,0.5625,-0.9375,-1.6875,0
32330,-1.5,-1.0625,-1.125,0
32350,-2,-0.125,-0.4375,0
32370,-2.625,0.1875,1.75,0
32390,-4.5625,-0.0625,2,0
32410,-6.3125,-1.25,1,0
32430,-4,-1.4375,0.0625,0
32450,-3.875,-1.3125,-0.8125,0
32470,-4.5,-1.125,-1.6875,0
32490,-3.5,-1.125,-1.9375,0
32510,-1,-1.25,-0.875,0
32530,-1.9375,-1.75,-0.3125,0
32550,-1.875,-1.5625,-0.9375,0
32570,-1.1875,-1.1875,-0.125,0
32590,-0.6875,-0.9375,0.4375,0
32610,0.4375,-1.0625,0,0
32630,1.8125,-1.5625,-0.375,0
32650,2.625,-1.625,0.0625,0
32660,0.3125,-0.9375,-0.0625,0
32680,1.1875,-0.25,0.0625,0
32700,3,-1.0625,-0.0625,0
32720,0.875,-1.1875,-0.375,0
32740,-2,-1.4375,-0.3125,0
32760,-4.1875,-1.6875,0.25,0
32780,-4.1875,-2.5625,0.0625,0
32800,-8.1875,-4.4375,-0.5,0
32820,-9.375,-2.875,0.1875,0
32840,-9.875,-1.9375,0.6875,0
32860,-11.4375,-2.5625,0.25,0
32880,-12.375,-2.5,0.8125,0
32900,-9.5625,-1.1875,1.25,0
32920,-5.1875,-1.3125,0.0625,0
32940,2.0625,-1.5625,-1.3125,0
32960,5,-1.125,-2.75,0
32980,3.5,-0.25,-3.75,0
33000,2.0625,0.25,-3.75,0
33020,1.9375,-0.25,-2.5,0
33040,1.125,-0.875,-0.9375,0
33060,1.3125,-1,0.6875,0
33080,1.625,-1.5,2.4375,0
33100,-0.125,-1.125,3.4375,0
33120,-1.3125,-1.25,2.6875,0
33140,-2.5,-1.125,0.125,0
33160,0.375,-1.125,-1.125,0
33180,5.125,-0.375,-1.5,0
33200,6.875,0.0625,-0.8125,0
33220,6.1875,0.125,0.125,0
33240,4.5625,-0.5625,1.25,0
33260,3.375,-1.75,1.625,0
33280,1.125,-1.8125,0.8125,0
33300,-0.5625,-1.3125,0.8125,0
33320,-0.5625,-0.6875,1,0
33340,-2.5625,-0.5625,0.5625,0
33360,-3.4375,-0.125,0.5625,0
33380,-3.9375,-0.4375,0.8125,0
33400,-2.1875,-0.75,0.5,0
33420,-2.5625,-0.5,0.0625,0
33440,-3.4375,-0.3125,-0.5,0
33460,-4.6875,-0.0625,-1.25,0
33480,-4.25,0.6875,-0.25,0
33500,-4,0.4375,0.8125,0
33520,-4.3125,0.125,1.5,0
33540,-4.25,-0.375,1.875,0
33560,-5.5625,-0.5625,2.0625,0
33580,-4.0625,-0.4375,0.8125,0
33600,-2.375,-0.5625,-0.1875,0
33620,-2.9375,-0.4375,-1,0
33640,-3.625,-0.25,-2.1875,0
33660,-3.875,-0.8125,-1.8125,0
33680,-1.8125,-1.1875,-0.875,0
33700,-0.375,-0.75,-0.4375,0
33720,0.5,-0.875,-0.8125,0
33740,-0.375,-0.6875,-1,0
33760,0.9375,0.125,-0.75,0
33780,4.25,-0.5625,-0.3125,0
33800,5.625,-0.5625,0.5,0
33820,4.1875,-0.6875,2.25,0
33840,3.4375,-0.75,1.625,0
33860,3.375,-1.125,0.4375,0
33880,2.5,-0.5,0.5,0
33900,3.125,0.0625,0.8125,0
33920,3.5,0.625,0.4375,0
33940,1.5,0.25,0.5,0
33960,-0.1875,-0.6875,0.875,0
33980,0.3125,-0.9375,-1.5,0
34000,-1.875,-2.1875,-3.25,0
34020,-3.4375,-1.9375,-2,0
34040,-0.4375,-1.625,-1.3125,0
34060,1.8125,-1.5625,-2.125,0
34080,2.0625,-0.1875,-0.5,0
34100,0.125,1.375,1.375,0
34120,-2.0625,1.375,2.5625,0
34140,-4.5625,-0.0625,3.875,0
34160,-2,-0.625,5.0625,0
34180,0.625,-1.125,3.375,0
34200,1.8125,-1.5625,0.8125,0
34220,2.75,-1.6875,-1.1875,0
34240,5.6875,-1.875,-3.5,0
34260,6.6875,-2.25,-6.125,0
34280,5.4375,-1.875,-7,0
34300,4.25,-0.4375,-4,0
34320,5.125,0.125,0.3125,0
34340,3.5625,-0.9375,2.625,0
34360,3.25,-1.5625,3.6875,0
34380,4.125,-1.3125,4.4375,0
34400,3.125,-0.25,4.5625,0
34420,-2.875,0.4375,3.25,0
34440,-5.875,0.4375,0.9375,0
34460,-2.3125,-0.375,-0.1875,0
34480,2.125,-0.8125,0.4375,0
34500,0.125,0,0.4375,0
34520,-3.375,0.375,-0.375,0
34540,-5.6875,-0.6875,-1,0
34550,-3.5625,-1.25,-2,0
34570,-6,-1.25,-1.875,0
34590,-6.375,-0.1875,-2.25,0
34610,-6.125,-0.4375,-1.8125,0
34630,-2.75,-0.9375,-0.1875,0
34650,-0.75,-0.625,0.125,0
34670,0.5625,-0.6875,0.1875,0
34690,0.6875,-0.875,-0.375,0
34710,-0.1875,-0.9375,0.25,0
34730,-1.125,-0.5,0.5625,0
34750,-0.8125,-0.625,0.1875,0
34770,-1.75,-1.5,1.3125,0
34790,-0.375,-1,0.6875,0
34810,2.0625,-0.8125,-0.4375,0
34830,-1.1875,-0.8125,-1.3125,0
34850,-1.6875,1.25,-0.5,0
34870,0.75,1.125,1.3125,0
34890,1.25,-0.625,1.375,0
34910,-0.0625,-1,0.9375,0
34930,1.3125,-0.75,0.75,0
34950,4.125,-0.0625,0.125,0
34970,4.375,-0.1875,-0.6875,0
34990,1.8125,-0.5625,-0.3125,0
35010,-0.125,-0.3125,0.4375,0
35030,-1.125,-0.9375,0.4375,0
35050,-4.375,-2.0625,-0.5,0
35070,-3.75,-1.8125,-1.5,0
35090,0.6875,-1.5625,-1.4375,0
35110,3,-1.0625,-0.4375,0
35130,4.6875,0.0625,1.3125,0
35150,3.25,-0.6875,2.75,0
35170,0.9375,-1.125,3.125,0
35190,-1.1875,-1.4375,2.75,0
35210,-1.3125,-1,2.0625,0
35230,-1.3125,-0.4375,1,0
35250,-1.5,-0.625,-0.125,0
35270,-1,-0.625,-1.3125,0
35290,0.5,-0.875,-1.3125,0
35310,0.75,-0.9375,-1.5,0
35330,-2.375,-0.875,-1.125,0
35350,-3.75,-0.875,-0.375,0
35370,-2.5,-0.5625,0,0
35390,1.125,-1.625,0.0625,0
35410,-0.125,-1.9375,-0.3125,0
35430,-2.625,-1,-1.125,0
35450,-2.375,-0.875,-1.875,0
35470,0.375,-1.0625,-2.0625,0
35490,0,-1.1875,-1.375,0
35510,-0.0625,-1.5625,-1.375,0
35530,1.6875,-1.875,-1.1875,0
35550,6.25,-2.4375,-0.4375,0
35570,6.375,-2.8125,-0.4375,0
35590,4.625,-2.6875,1.6875,0
35610,7.625,-2.125,3.0625,0
35630,12,-1.5625,3.625,0
35650,11.25,-2.8125,4.0625,0
35670,10.125,-3.25,3.375,0
35690,5.9375,-1.6875,2.625,0
35710,3.125,-2.0625,2.4375,0
35730,-2.0625,-3.3125,1.625,0
35750,-0.125,-3,-1.5625,0
35770,-2.3125,-3.3125,-2.5,0
35790,-2.3125,-1.5,-0.875,0
35810,-4.4375,-1.25,0.125,0
35830,-2.75,-1.5,-0.4375,0
35850,-4.25,-0.4375,0.25,0
35870,-7.5625,-0.4375,0.8125,0
35890,-10.8125,-3.6875,1.5625,0
35910,-1.5,-6.0625,0.8125,0
35930,0.75,-7.8125,-3.5625,0
35950,-7.9375,-9.6875,-5.5,0
35970,-17.375,-18.8125,-11,0
35990,-27.625,-28,-21.0625,0
36010,-19.5,-30.25,-19.75,0
36030,-10.1875,-45.1875,-25.25,0
36050,7.1875,-50.625,-28.5625,0
36070,9.875,-56.8125,-26.6875,0
36090,2.625,-65.1875,-28.5625,0
36110,-7,-72,-34.1875,0
36130,-12.4375,-77.75,-34.6875,0
36150,-14.5625,-82.375,-33.375,0
36170,-11.6875,-84.125,-30,0
36190,-12.4375,-85.5625,-25.25,0
36210,-17.4375,-87.8125,-20.5,0
36230,-23.9375,-88.9375,-17.375,0
36250,-29,-87.375,-19.125,0
36270,-30.875,-85.75,-21.25,0
36290,-28.8125,-80.125,-21.375,0
36310,-23.9375,-74.8125,-14.25,0
36330,-20.3125,-68.5625,-4.8125,0
36350,-24.4375,-60.8125,-3.0625,0
36370,-26.125,-51.875,0.4375,0
36390,-29.4375,-45.5,2.5625,0
36410,-31.5,-43.875,1.4375,0
36430,-29.1875,-40.6875,-3.5,0
36450,-25.875,-35.1875,-4.9375,0
36470,-27.75,-35.6875,-0.5625,0
36490,-23.1875,-34.5,-2.5625,0
36510,-18.625,-32.875,-7.75,0
36530,-18.6875,-32.4375,-7.9375,0
36550,-21.4375,-35.25,-3.625,0
36570,-25.8125,-36.25,-1.5625,0
36590,-26.5,-34.75,-1.75,0
36610,-20.375,-32.75,2.375,0
36630,-22.125,-35.375,9,0
36650,-17.625,-35.1875,9.1875,0
36670,-10.4375,-31.75,5.4375,0
36690,-11.75,-29.5,5.0625,0
36710,-11.5625,-28.5,3.9375,0
36730,-8.625,-26.5,-2.5,0
36750,1.1875,-23.8125,-8.25,0
36770,6.5625,-23.875,-8.5,0
36790,6.375,-23.6875,-7.0625,0
36810,3.125,-24.125,-5.4375,0
36830,-1.75,-21.5625,-2.875,0
36850,-5.6875,-18.8125,-2.125,0
36870,-6.6875,-17.625,-5,0
36890,1.875,-18.0625,-5.5625,0
36910,-4.6875,-16.6875,-1.75,0
36930,-10.8125,-12.0625,-6.1875,0
36950,-7.0625,-13.625,-10.5,0
36970,-8.625,-9.4375,-3.375,0
36990,-13.8125,-10.0625,-0.125,0
37010,-11.125,-7.125,-5,0
37030,-5.4375,-5.5,-3.1875,0
37050,-9.375,-4.3125,0.9375,0
37070,-14.875,-1.5,0.6875,0
37090,-14.25,1.0625,3.375,0
37110,-11.3125,-2,8,0
37130,-4.5625,-3.8125,9.0625,0
37150,-5.0625,-2.1875,7,0
37170,3.625,-1.5,4.0625,0
37190,8.0625,-2.1875,7.125,0
37210,5,-0.25,7.8125,0
37230,3.75,2.3125,5.4375,0
37250,7.0625,3.5625,8.6875,0
37270,9.9375,2.875,10.1875,0
37290,10.4375,-0.75,4.5625,0
37310,7.625,-1.1875,0.875,0
37330,10.8125,1.375,1.6875,0
37350,12.1875,0,-0.25,0
37370,8.0625,-3.375,-0.1875,0
37390,6.125,-1.6875,-0.375,0
37410,1.8125,0.625,-0.375,0
37430,-2.875,0.4375,0.125,0
37450,-1.3125,-0.875,-0.625,0
37470,-3.4375,-1.4375,0,0
37490,-2.5,-2.5,0.875,0
37510,-1.6875,-4.125,1.8125,0
37530,-2.9375,-5.375,1.4375,0
37550,-3.9375,-4.125,0.875,0
37570,-1.1875,-3.625,0.1875,0
37590,1.625,-4.75,2,0
37610,1.0625,-4.625,2.375,0
37630,1.0625,-2.1875,1.8125,0
37650,4,-0.25,2,0
37670,7.9375,-0.5625,2.8125,0
37690,4.5625,-0.375,0.75,0
37710,5.375,0.125,-0.0625,0
37730,9.25,-0.375,-1,0
37750,11,-0.4375,-2.5,0
37770,6.9375,-0.875,-1.0625,0
37790,2.25,-1.3125,0.8125,0
37810,0.75,-1.3125,0.5,0
37820,-3,-1.9375,-1,0
37840,-4.625,-2,0.6875,0
37860,-3.5625,-0.8125,1.125,0
37880,-4.8125,1.25,0.125,0
37900,-4.4375,1.625,1.375,0
37920,-3.375,0.5625,1.625,0
37940,-1.25,0.6875,0.25,0
37960,-1.3125,0.1875,0.125,0
37980,0.9375,0.25,-2.0625,0
38000,4.5,-1,-3,0
38020,4.8125,-2.1875,-0.8125,0
38040,1.8125,-1.875,-0.5,0
38060,1.6875,-1.125,-1.375,0
38080,2.4375,-1.0625,-2.25,0
38100,2.4375,-1.3125,0,0
38120,1.4375,-0.875,2.125,0
38140,0.25,0.625,1.3125,0
38160,-0.0625,1,2.6875,0
38180,-1.9375,-0.3125,4,0
38200,-2.3125,0.5,3.75,0
38220,-0.75,1.0625,3,0
38240,0.5,0,3,0
38260,0.75,-1.5625,2.1875,0
38280,-0.4375,-1.625,-1.0625,0
38300,1.9375,-1.8125,-1.6875,0
38320,2.9375,-2.25,0.125,0
38340,-0.8125,-1.8125,0.375,0
38360,-1.75,-1.1875,0.375,0
38380,-1.375,-1.0625,0.3125,0
38400,-2.5625,-1.5625,1.75,0
38420,-2.8125,-1.625,0.75,0
38440,-2.5,-0.3125,-0.6875,0
38460,-1.625,-0.4375,0.1875,0
38480,-1.3125,-1.8125,0.375,0
38500,-2.25,-1,-0.875,0
38520,-1.5625,-0.625,0.0625,0
38540,-0.5,-0.6875,1.125,0
38560,-0.25,-0.875,0.0625,0
38580,-1.6875,-0.6875,-2.1875,0
38600,0.25,-0.375,-3.6875,0
38620,0.1875,-0.8125,-2.5,0
38640,-0.8125,-1.6875,-0.125,0
38660,0.1875,-1.0625,0.625,0
38680,0.875,-1.3125,1.9375,0
38700,-1,-1.8125,-0.4375,0
38720,-0.25,-1.25,-1.1875,0
38740,1.1875,-0.875,1.6875,0
38760,0.9375,0.1875,-0.0625,0
38780,4.625,1.5,-0.0625,0
38800,4.4375,0.4375,3.4375,0
38820,-1.3125,-1,4.1875,0
38840,-5.4375,-1,1.625,0
38860,-4.6875,-1.125,-1.4375,0
38880,1.0625,-1.5625,0.5625,0
38900,3.8125,-2.6875,3,0
38920,5.75,-3.6875,1.5625,0
38940,4.4375,-3.9375,-0.0625,0
38960,2,-2.5625,-0.8125,0
38980,-1.4375,-2.25,-0.625,0
39000,1,-2.8125,-0.375,0
39020,2.8125,-4.0625,0.8125,0
39040,4.0625,-5.375,1.3125,0
39060,4.6875,-5.4375,1.1875,0
39080,5.375,-6.3125,2.125,0
39100,3.25,-7.125,2.6875,0
39120,5.75,-6.75,1.4375,0
39140,5.25,-6,0.25,0
39160,8.375,-5.4375,2.25,0
39180,6.625,-4.75,2.375,0
39200,6.0625,-4.875,0.0625,0
39220,8.125,-6.375,-1.25,0
39240,9.625,-6.5625,-1.5,0
39260,10.75,-5.1875,2,0
39280,14.0625,-5.9375,1.25,0
39300,11.9375,-6.875,-1.125,0
39320,8.25,-7.6875,0.25,0
39340,5.6875,-6.75,1.6875,0
39360,8,-6.4375,2.0625,0
39380,11.125,-6.875,2.5,0
39400,10.75,-7.125,1.5625,0
39420,9.9375,-5.25,-0.6875,0
39440,11.3125,-3.25,-2.9375,0
39460,15,-3.625,-3.9375,0
39480,17.8125,-3,-2.625,0
39500,11.375,-2.4375,-2.125,0
39520,10.6875,-0.3125,-3.5625,0
39540,11.6875,-3,-4.0625,0
39560,10.4375,-4.5,-2.75,0
39580,6.6875,-3.5,-3.3125,0
39600,3.5625,-1.5625,-2.625,0
39620,6.3125,-5.25,0.5,0
39640,5.3125,-7.625,1.125,0
39660,1.625,-7.9375,-1.75,0
39680,-0.8125,-6,-3.3125,0
39700,0.5625,-8.125,-2.4375,0
39710,-0.875,-10.875,-3.125,0
39730,-3.3125,-9.75,-5,0
39750,-3.5,-7.0625,-5.875,0
39770,-1.5,-8.375,-5.4375,0
39790,2.0625,-8.5625,-5.6875,0
39810,0.625,-6.75,-7.25,0
39830,-3.75,-7.5,-6.1875,0
39850,-9.4375,-7.9375,-2.8125,0
39870,-13.5,-4.6875,-2.125,0
39890,-16.125,0.875,-2.5,0
39910,-11.625,2.9375,-0.8125,0
39930,-8.8125,5.9375,-0.125,0
39950,-19.25,10,0.6875,0
39970,-17.8125,10.6875,-1.5,0
39990,-14.5625,14,-1.75,0
40010,-12.5625,17.3125,-1.1875,0
40030,-12.75,17.125,-2.5625,0
40050,-12.6875,15.4375,-3.375,0
40070,-10,13.3125,0.0625,0
40090,-9.3125,8.625,-0.1875,0
40110,1.6875,5.125,-4.25,0
40130,2.75,0.25,-3.0625,0
40150,-1.75,-0.75,-0.0625,0
40170,-4.25,0.3125,0.5625,0
40190,-3.375,1.1875,-0.25,0
40210,-0.4375,0.875,-1.75,0
40230,1.0625,0.0625,-1.4375,0
40250,2.0625,1.625,3.25,0
40270,4.1875,1.8125,4.25,0
40290,3,3.875,-1.5,0
40310,-0.4375,6.9375,-5.125,0
40330,-2.6875,6.6875,-3.3125,0
40350,-0.125,3.375,-1.625,0
40370,4.125,2.125,-1.8125,0
40390,5,1.8125,-2.9375,0
40410,3.625,0.5625,-3.25,0
40430,1.5625,-2.25,-1.625,0
40450,1.5,-4,-1.4375,0
40470,2.0625,-3.25,-1.8125,0
40490,1,-3.125,0.3125,0
40510,-1.4375,-4.5,2.375,0
40530,1.3125,-5.5625,4.875,0
40550,3.75,-6.3125,4.25,0
40570,4.4375,-6.1875,1.875,0
40590,3.125,-6.625,2.6875,0
40610,1.9375,-6.625,2.6875,0
40630,1.125,-6.8125,2.375,0
40650,1.375,-8.125,1.5625,0
40670,3.6875,-7.125,2.5625,0
40690,6.25,-6.625,4.3125,0
40710,7.0625,-6.6875,2.3125,0
40730,9.5,-4.5,1.3125,0
40750,10.0625,-3.625,2.3125,0
40770,10.5625,-3.625,1.375,0
40790,9,-1.9375,0.125,0
40810,9.625,-0.625,-0.1875,0
40830,10.75,-1.1875,1.6875,0
40850,7.1875,-1.4375,2.25,0
40870,2.6875,-1.875,0.25,0
40890,-1.5625,-3.5625,-4,0
40910,0.5625,-3.875,-3.6875,0
40930,0.1875,-4.5,0.875,0
40950,1.875,-6.0625,0.875,0
40970,2.4375,-4.5,1.1875,0
40990,3.625,-3.4375,-0.125,0
41010,1.625,0.1875,-2.6875,0
41030,4,2.1875,-4.0625,0
41050,9.625,0.9375,-2.5,0
41070,12.3125,-0.5,-0.1875,0
41090,10.625,-0.5,-2.375,0
41110,3.875,-0.3125,-6.3125,0
41130,1.8125,-1.25,-5.4375,0
41150,1.875,-6.75,0.0625,0
41170,-1.125,-9.6875,-0.25,0
41190,-5.3125,-7.25,-2.375,0
41210,-8.6875,-6.625,-2.625,0
41230,-5.5625,-6.4375,-2.1875,0
41250,-4.5,-1.9375,0.9375,0
41270,-7.25,2.5,-1,0
41290,-15.3125,6.625,-4.0625,0
41310,-8.25,10.125,-2.125,0
41330,-9.6875,11.5,-1,0
41350,-6.3125,13.625,-6.3125,0
41370,-2,15.875,-10.8125,0
41390,-6.25,14.6875,-7.875,0
41410,-9.5625,10.4375,-3.625,0
41430,-9.0625,5.9375,-4,0
41450,-4.5,3.4375,-4.4375,0
41470,-1.5,0.5,-2.5625,0
41490,2.1875,-1.6875,-1.9375,0
41510,3.3125,-2.625,1.375,0
41530,1.5,-4.75,5.4375,0
41550,-3.75,-5.125,-0.25,0
41570,1.8125,-1.25,-3.3125,0
41590,5.375,-0.375,4.6875,0
41610,2.125,-3,6.375,0
41630,-0.8125,-1.9375,1.875,0
41650,-3.5625,1.6875,3,0
41670,0.375,2.9375,-2.125,0
41690,6.25,3.4375,-5.125,0
41710,4.375,0.5,-0.0625,0
41730,-2.5,1.0625,-0.0625,0
41750,-9.4375,5.8125,-3.9375,0
41770,-6.1875,5.4375,-5.9375,0
41790,4.6875,-1.25,1,0
41810,14.125,-3.3125,3.6875,0
41830,20,-2.5625,2.3125,0
41850,17.875,-1.6875,6.0625,0
41870,9.125,-2.1875,4.5,0
41890,8,-0.3125,5,0
41910,13.375,-2,1.4375,0
41930,18.25,-0.9375,-1.25,0
41950,17.9375,2.3125,4.3125,0
41970,14.3125,0.4375,3.5,0
41990,13.4375,-0.75,-1.6875,0
42010,11.0625,-0.375,-3.6875,0
42030,7.9375,-4,-0.9375,0
42050,-0.9375,-8.75,0.625,0
42070,-6,-9.0625,-0.5,0
42090,-9.75,-8.625,-3.0625,0
42110,-10.375,-8,-3.375,0
42130,-8.1875,-9,-2.5625,0
42150,-8.375,-11.125,-2.75,0
42170,-12.0625,-9.8125,-3.75,0
42190,-10.75,-5.75,-5.6875,0
42210,-9.1875,-3,-3.875,0
42230,-6.3125,-1.4375,0.75,0
42250,-8.8125,-1.0625,-1,0
42270,-14.0625,2.8125,-3.625,0
42290,-10.375,5.1875,4.6875,0
42310,-3.5625,5.375,3.375,0
42330,0,4.625,-7.4375,0
42350,1.8125,4.3125,-4.6875,0
42370,-0.8125,1.75,2.5625,0
42390,1.375,-0.3125,4.1875,0
42410,4.75,-0.75,2.1875,0
42430,8.5,-2.75,2.5625,0
42450,9.625,-4.4375,4.5,0
42470,8.1875,-6.25,3.875,0
42490,5.4375,-7.875,1.625,0
42510,6.0625,-8.4375,0.1875,0
42530,8.3125,-7.125,-1.625,0
42550,12.5,-4,-1.25,0
42570,16.75,-3.8125,0.125,0
42590,13.125,-5.6875,0.4375,0
42610,11.5625,-3.25,2.0625,0
42630,5.9375,-4.125,2.3125,0
42650,7.25,-2.9375,0.0625,0
42670,12.6875,-3.5,1.0625,0
42690,14.3125,-4.375,-0.3125,0
42710,11.3125,-2.5625,-3.0625,0
42730,9.9375,-0.1875,-5.3125,0
42750,11.6875,-2.3125,-5.875,0
42770,12.9375,-2.4375,-6.25,0
42790,9.6875,0,-8.0625,0
42810,9.625,-2.75,-7.5,0
42830,9.1875,-4.875,-5.75,0
42850,4.9375,-2.25,-6.125,0
42870,1.25,-0.5625,-8.1875,0
42890,1.6875,-1.5,-7.5,0
42910,2.4375,-3.4375,-7.3125,0
42930,1.3125,-0.8125,-8.25,0
42950,0.25,-2.125,-7.75,0
42970,0.3125,-5.6875,-4.625,0
42990,-1.25,-6.25,-2.375,0
43000,-2.875,-4.1875,-5.875,0
43020,-2.875,-2.875,-10.375,0
43040,-1.9375,-3.875,-12.25,0
43060,-1.625,0.25,-14.0625,0
43080,-0.5625,0.375,-17,0
43100,0.0625,3.6875,-20.5,0
43120,3.125,5.3125,-24.8125,0
43140,1.25,6.6875,-26.6875,0
43160,0.875,8.5,-30.375,0
43180,2,12,-31.25,0
43200,-0.5,12.3125,-33.1875,0
43220,-1,15.3125,-36.375,0
43240,2.25,17.375,-40.125,0
43260,-0.4375,15.6875,-33.0625,0
43280,-1.8125,11.875,-24.625,0
43300,-2.8125,6.4375,-17.375,0
43320,-6.1875,3.5,-12.5,0
43340,-12.125,4.125,-7.9375,0
43360,-16.8125,1.0625,-0.8125,0
43380,-20.5,-3.125,9.0625,0
43400,-19,-4.5,17.5,0
43420,-19.875,-3.3125,27.625,0
43440,-26.5,-8.4375,37.5625,0
43460,-36.125,-10.4375,41.25,0
43480,-47.4375,-9.5,39.5625,0
43500,-45.375,-14.3125,42,0
43520,-44.75,-9.25,47.625,0
43540,-47.75,-5.1875,48.25,0
43560,-43.5,-11.375,46.875,0
43580,-38.5625,-9.1875,41.4375,0
43600,-40.875,-4.75,33.75,0
43620,-34.875,1.0625,22.4375,0
43640,-18.625,2.375,6.625,0
43660,-4.8125,-2.5,-2.125,0
43680,-4.1875,-8.8125,1.8125,0
43700,-1.625,-9.375,2.125,0
43720,4.5625,-6.1875,-2.6875,0
43740,4.6875,-3.875,-6.4375,0
43760,2.4375,-3.6875,-6.375,0
43780,2.625,-4.4375,-4.5,0
43800,-0.3125,-6.625,-2.625,0
43820,-6.8125,-7.125,0.9375,0
43840,-7,-5.125,3.0625,0
43860,-3.0625,-2,1.9375,0
43880,-4.5625,0.375,4.8125,0
43900,-7.875,-0.4375,9.5,0
43920,-5.375,1.25,7.25,0
43940,-6,4.25,4.4375,0
43960,-6.125,5.4375,6.9375,0
43980,-3.4375,5,6.1875,0
44000,-0.8125,6.0625,3.5,0
44020,1.8125,7.3125,4.1875,0
44040,-0.1875,6.875,3.125,0
44060,1.875,6.9375,0.0625,0
44080,6.5625,7.9375,-0.1875,0
44100,3.4375,8.3125,-6.875,0
44120,0.8125,6.625,-5.875,0
44140,-1.1875,2.8125,1.75,0
44160,2.75,-1.3125,0.6875,0
44180,7.375,-3.0625,-1.375,0
44200,8.3125,-3.6875,-0.6875,0
44220,12.0625,-5.125,-1.1875,0
44240,12.1875,-7.8125,-2.1875,0
44260,13.8125,-11.6875,-3.1875,0
44280,15.4375,-12.5625,-6.9375,0
44300,21,-9.875,-7.4375,0
44320,24.5,-8.1875,-8.6875,0
44340,20.25,-9.6875,-8.3125,0
44360,16.5625,-9.375,-8,0
44380,17.375,-7.6875,-7.5625,0
44400,16.25,-6.75,-9,0
44420,15.375,-3.125,-12.5,0
44440,14.5625,-3.0625,-17.8125,0
44460,15.1875,-3.875,-19.375,0
44480,17.375,-4.125,-22.125,0
44500,15.1875,-1,-25.6875,0
44520,18.1875,-0.9375,-29.9375,0
44540,21.875,-0.25,-37,0
44560,18.75,-1.5625,-41.3125,0
44580,11.875,6.4375,-45.6875,0
44600,10.125,8.0625,-48.9375,0
44620,12,6.75,-52.625,0
44640,6.875,10.4375,-52.375,0
44660,1.9375,14.8125,-51,0
44680,-2.125,14.125,-51.1875,0
44700,-3.25,15.6875,-56.9375,0
44720,-2.5,22.75,-59.9375,0
44740,-3.9375,23.875,-55.375,0
44760,-7,23.5625,-48.9375,0
44780,-8.3125,27.1875,-45.5,0
44800,-8.8125,27.125,-44.1875,0
44820,-11.125,24.75,-41.125,0
44840,-13.4375,21.1875,-37.1875,0
44860,-13.5625,14.875,-33.625,0
44880,-10.375,12.5625,-21.875,0
44890,-3.8125,6.8125,-6,0
44910,-9.125,5.4375,7.0625,0
44930,-11.875,3.8125,9.375,0
44950,-13.8125,2.6875,1.875,0
44970,-10.8125,0.0625,6.5625,0
44990,-9.125,-0.6875,20.5625,0
45010,-9.0625,-7.25,32,0
45030,-7.75,-8.1875,31.6875,0
45050,-8.5625,-5.5625,35.375,0
45070,-7.25,-5,41.875,0
45090,-6.5,-4.0625,41.25,0
45110,-4.5,-5.5625,36.5,0
45130,-5.8125,-8.25,33.5,0
45150,-5.25,-7.4375,30.375,0
45170,0.625,-4.125,30.0625,0
45190,3.8125,-2.6875,31,0
45210,2.875,-4.375,28.4375,0
45230,-0.25,-3.75,25.4375,0
45250,-2.125,-2.1875,26.125,0
45270,-2.3125,-4.125,28,0
45290,-3.4375,-6.3125,28.0625,0
45310,-4.6875,-8.375,29.375,0
45330,-10.625,-11,32.5625,0
45350,-10.6875,-15.5,36.5,0
45370,-14.3125,-18.4375,37.625,0
45390,-18.6875,-19.1875,38.375,0
45410,-23.375,-17.1875,38.625,0
45430,-27.5625,-14.8125,39.4375,0
45450,-27.5,-14.75,40.5625,0
45470,-27.125,-11,39.125,0
45490,-34.4375,-6.6875,36.625,0
45510,-34.0625,-5.5625,33.6875,0
45530,-28.4375,-1.5,30.9375,0
45550,-26,1.1875,28,0
45570,-22.5625,1.125,23.875,0
45590,-15.375,-4.125,21.0625,0
45610,-11,-8.5,19.1875,0
45630,-9.625,-10.3125,18.5625,0
45650,-6,-9.5625,15.75,0
45670,1.5625,-9.5,11.0625,0
45690,2.3125,-9.9375,8.5625,0
45710,0.5625,-10.6875,8.375,0
45730,-1.1875,-9.5,5.6875,0
45750,-0.8125,-7.9375,5.6875,0
45770,-0.0625,-6.9375,4.4375,0
45790,3.0625,-3.875,-0.8125,0
45810,5.5625,-1.1875,1.1875,0
45830,-0.875,-0.875,6.9375,0
45850,-5.8125,1,8.125,0
45870,-0.3125,3.25,0.5,0
45890,3.8125,1.8125,-8.875,0
45910,2.3125,-0.8125,0.0625,0
45930,-1.0625,1.125,8.9375,0
45950,-0.875,3.25,1.875,0
45970,2.375,4.375,-4.6875,0
45990,6,4.5625,-0.3125,0
46010,5.5,0.375,-1,0
46030,5.8125,-2.5,-6.625,0
46050,5.5625,-1.875,-9.5,0
46070,11.0625,-1.6875,-8.875,0
46090,16.125,-4.9375,-10.25,0
46110,20.0625,-9.375,-11.3125,0
46130,20.6875,-9.625,-9.5,0
46150,21.8125,-9.6875,-10.5625,0
46170,28.9375,-10.3125,-13,0
46190,31.875,-8.8125,-11.3125,0
46210,34,-13.1875,-10.75,0
46230,28.3125,-10.0625,-9.0625,0
46250,29.0625,-9.375,-10.8125,0
46270,29.5625,-16.25,-19,0
46290,23.5,-11.5,-17.6875,0
46310,19.875,-8.0625,-6.0625,0
46330,25.6875,-17.6875,1.75,0
46350,17.5,-16.0625,-2.25,0
46370,10.125,-14.125,-9.125,0
46390,0.5,-11.9375,-0.625,0
46410,-4.0625,-12.75,7.375,0
46430,-7.25,-12.1875,3.375,0
46450,-11.3125,-5.0625,-0.25,0
46470,-17.125,-1.8125,3.75,0
46490,-16.75,0.5,8.5625,0
46510,-16.3125,1.375,8.25,0
46530,-13.3125,1,-1.25,0
46550,-13.5,0.1875,-5.8125,0
46570,-16.5625,1.8125,3.375,0
46590,-15.25,-0.5625,8.0625,0
46610,-16.4375,0.625,7.1875,0
46630,-14.75,3,6.125,0
46650,-13.375,3.3125,5.3125,0
46670,-10.875,1.9375,5.6875,0
46690,-11.875,2.125,8.125,0
46710,-10.75,4.5,5.6875,0
46730,-8.625,8.6875,2.4375,0
46750,-3.75,7.875,4,0
46770,-1.125,7.1875,6,0
46790,-0.125,9.9375,2.3125,0
46810,-2.125,12.4375,-0.0625,0
46830,-3.4375,11.1875,3.4375,0
46850,-0.1875,8.0625,2.8125,0
46870,1.1875,5,2.875,0
46890,3.9375,1.6875,1.3125,0
46910,6.9375,3.4375,4,0
46930,7.5625,5.0625,7.6875,0
46950,8.5,1.375,-0.3125,0
46970,9.1875,-0.9375,-6.5625,0
46990,7.9375,-2.375,1.0625,0
47010,9.3125,-3.5,2.1875,0
47030,15.25,-5.0625,-11,0
47050,18.5,-5.8125,-13.8125,0
47070,19.4375,-6.3125,-9.125,0
47090,25,-9.1875,-10.9375,0
47110,21.375,-5.25,-4.625,0
47130,14.125,-6.875,-0.375,0
47150,12.875,-5.3125,-4.3125,0
47170,15.6875,-6.5625,-6.3125,0
47190,19.375,-5.6875,-8.375,0
47210,21.5,-3.4375,-6.75,0
47230,20.125,-7.3125,-5.375,0
47250,17.6875,-7.1875,-10.0625,0
47270,17.75,-3.3125,-14.625,0
47290,19.875,-3.4375,-16.8125,0
47310,25.375,-3.125,-14.5625,0
47330,24.1875,0.3125,-8.5,0
47350,16.875,0.25,-2.125,0
47370,15.375,0.6875,-2.875,0
47390,10.4375,0.4375,-1.1875,0
47410,3.5625,-3.4375,3.25,0
47430,-4.8125,-2.6875,11.625,0
47450,-13.1875,-1.5625,11.6875,0
47470,-12.5625,-3.8125,2.0625,0
47490,-14.1875,-2.25,1.25,0
47510,-17.25,-8.125,9.0625,0
47530,-15.375,-8.4375,11.3125,0
47550,-11.75,-6.125,1.125,0
47570,-16.875,-2.375,-2.5,0
47590,-21.1875,-0.4375,4.1875,0
47610,-17.375,-6.1875,9.25,0
47630,-10.9375,-10.625,1.8125,0
47650,-8.5,-6.1875,-6.25,0
47670,-11.5,-3.5625,-5.5625,0
47690,-11.5,-2.875,-0.375,0
47710,-6.4375,-2.625,4.625,0
47730,-7.8125,-2.625,3.6875,0
47750,-12.0625,-0.9375,1.8125,0
47770,-12.0625,-1.3125,3,0
47790,-14.3125,-2.1875,5.1875,0
47810,-10.875,-1.5,3.6875,0
47830,-6.375,-1.125,0.125,0
47850,-4.25,0.9375,0.9375,0
47870,-5.1875,-1.6875,3.625,0
47890,-5.75,-3.6875,2.9375,0
47910,-3.125,-0.5,0.75,0
47930,-0.6875,3.1875,1.5,0
47950,-1.6875,2.1875,4,0
47970,-1.4375,0.9375,4.8125,0
47990,-2.375,0.8125,2.1875,0
48010,-4.5625,1.5625,1.5625,0
48030,-2.5625,0.75,2.25,0
48050,-1.0625,0.8125,1.6875,0
48070,-0.4375,0.4375,0.625,0
48090,-1.5,-1.3125,0.3125,0
48110,-0.9375,-1,-0.4375,0
48130,0.5,0,-3.25,0
48150,3.875,1.375,-5.625,0
48170,3.6875,0.5,-3.3125,0
48180,3.6875,0.1875,-0.625,0
48200,2.25,0.375,-2.25,0
48220,0.125,1.6875,-4.5,0
48240,2.5625,0.5,0.0625,0
48260,0.625,-1.625,2.75,0
48280,-2.3125,-0.5625,1.0625,0
48300,0.5,-0.125,-0.1875,0
48320,2,-0.5625,1.625,0
48340,0.5625,-0.0625,3.75,0
48360,3.25,0.8125,2.8125,0
48380,2.3125,1.625,2.75,0
48400,-0.8125,1.125,2,0
48420,1.875,2.1875,3.75,0
48440,3.1875,1.4375,4.875,0
48460,1.625,0.8125,4.375,0
48480,4.5625,-1.1875,-0.1875,0
48500,8.0625,-1,-5.3125,0
48520,10.125,-1.125,-6,0
48540,12.1875,-2.3125,-5.875,0
48560,10.8125,-3.625,-4.5625,0
48580,9.5,-1.6875,-2.4375,0
48600,9.875,-2.5625,-1.75,0
48620,3.5,-4.1875,-0.25,0
48640,3.1875,-4.3125,1.125,0
48660,3.6875,-4.75,-0.0625,0
48680,4.25,-4.8125,1,0
48700,4.9375,-5.875,2.375,0
48720,5.25,-6.75,2.5,0
48740,5.6875,-5.5,1.625,0
48760,4.9375,-5.6875,1,0
48780,3.1875,-5.75,2,0
48800,3.6875,-6.125,1.5,0
48820,6.25,-5.3125,0,0
48840,8.125,-4.25,-0.875,0
48860,6.25,-3.875,1,0
48880,6.5,-3.875,1.9375,0
48900,5.875,-4.375,0.125,0
48920,6.75,-4.25,-0.6875,0
48940,6.5625,-4.5625,-0.25,0
48960,5.875,-4.3125,-0.4375,0
48980,7.4375,-4.875,-1.9375,0
49000,9.375,-4.375,-2.875,0
49020,8.5625,-3.875,-1.1875,0
49040,6.8125,-4.125,1.0625,0
49060,5.125,-5.9375,0.625,0
49080,4.375,-4.3125,-0.6875,0
49100,1.3125,-1.4375,0.625,0
49120,3.625,-2.25,3.4375,0
49140,4.8125,-6.3125,2.8125,0
49160,3.375,-6.625,2.5,0
49180,3.625,-6.6875,0.6875,0
49200,5.25,-7,-1.5,0
49220,8.875,-7,-2.75,0
49240,8.4375,-6.875,-3.8125,0
49260,6.9375,-5,-7.5,0
49280,6.3125,-4.3125,-11,0
49300,5.9375,-5.9375,-9.4375,0
49320,4.8125,-8,-6.5,0
49340,4.25,-7.8125,-8.5625,0
49360,1.375,-7.375,-8.875,0
49380,-2.1875,-7.8125,-7,0
49400,-1.625,-6.625,-4.6875,0
49420,-1.6875,-5.9375,-4.75,0
49440,-1.1875,-6.1875,-7,0
49460,-1.3125,-4.5,-8.0625,0
49480,-1.125,-3.1875,-7.3125,0
49500,2.1875,-3.25,-7.4375,0
49520,2.9375,-2.9375,-8.1875,0
49540,2.625,-2.6875,-9.875,0
49560,1.75,-3.3125,-9.75,0
49580,2.4375,-3.3125,-11.4375,0
49600,4.375,-5.6875,-15.125,0
49620,4.25,-6.5625,-16,0
49640,5.3125,-6.3125,-16.5,0
49660,7.375,-5.8125,-17.5,0
49680,7.5625,-4.1875,-18.4375,0
49700,6.6875,-2.625,-18.75,0
49720,5.625,-0.375,-18,0
49740,2.8125,2.0625,-15.5625,0
49760,3.4375,3.6875,-15.5,0
49780,3.9375,4.3125,-17.625,0
49800,4.0625,5.625,-18.625,0
49820,4.25,5.375,-17.4375,0
49840,6,6.4375,-17.8125,0
49860,5.1875,5.875,-19.75,0
49880,5.6875,6.25,-19.6875,0
49900,6.3125,7.875,-18.8125,0
49920,7.0625,8,-17.6875,0
49940,5,6.875,-17.5,0
49960,3.6875,7.375,-17.5625,0
49980,4,7.8125,-16.9375,0
50000,5.6875,8.0625,-15.4375,0
50020,5.875,6.9375,-14.5625,0
50040,7.125,10.6875,-18.3125,0
50060,12.75,15.625,-23.125,0
50080,12.1875,14.8125,-19.4375,0
50090,5.8125,12.375,-11.5625,0
50110,3.4375,11.0625,-10.4375,0
50130,6,11.75,-13.375,0
50150,6.5625,11,-10.1875,0
50170,5.25,9,-1.4375,0
50190,4.75,7.4375,4.5,0
50210,5.125,5.125,5.8125,0
50230,4.625,3.875,6,0
50250,3.6875,2.6875,7.75,0
50270,2.25,1.375,12.0625,0
50290,0.625,-0.0625,17.625,0
50310,-1.25,-2.5625,18.1875,0
50330,-2.25,-2.5,16.5,0
50350,-4.1875,-2.6875,18.1875,0
50370,-5.8125,-4.875,23.3125,0
50390,-7.0625,-7.875,28,0
50410,-7.5,-9.4375,27.25,0
50430,-9.9375,-9,24.6875,0
50450,-14.6875,-0.125,23.5625,0
50470,-18.9375,0.625,27.0625,0
50490,-22.6875,-3.4375,29.4375,0
50510,-24.375,-1.0625,26.375,0
50530,-24.125,6.5,21.0625,0
50550,-26.9375,11.125,18.625,0
50570,-33.25,1.875,21.1875,0
50590,-31.25,-4.4375,23.0625,0
50610,-28.0625,-6,19.1875,0
50630,-28.3125,-3.5625,15.5,0
50650,-28.875,-2.9375,13,0
50670,-27.8125,-5.8125,10.3125,0
50690,-29.125,-6.6875,10.625,0
50710,-32.625,-1.25,11.5,0
50730,-31.375,3.8125,11.1875,0
50750,-24.4375,-4.5625,9.75,0
50770,-18.6875,-6.875,11.0625,0
50790,-18.5,-2.625,11.5625,0
50810,-15.4375,1.0625,8.125,0
50830,-8.4375,1.4375,6.75,0
50850,-3.125,0.125,5.875,0
50870,-4.3125,-1.375,5.875,0
50890,-6.4375,1.0625,6.25,0
50910,-4,2.875,8.25,0
50930,-3.875,3.4375,10.75,0
50950,-2.3125,4,8.9375,0
50970,-4.875,2.625,7.875,0
50990,-5.5625,4.3125,9.375,0
51010,-5.5625,7.4375,10.125,0
51030,0,5.9375,11.125,0
51050,0.25,3.9375,9.8125,0
51070,5.5625,5.1875,7.8125,0
51090,9.5,5.6875,5.9375,0
51110,4.6875,4.75,6.625,0
51130,1.375,2.5,5.5625,0
51150,-0.1875,1.0625,4,0
51170,0.625,-0.125,4.4375,0
51190,5.4375,-2.4375,4.5,0
51210,8.4375,-4.375,2,0
51230,9.4375,-4.9375,1.8125,0
51250,5.6875,-5.0625,0.625,0
51270,7.75,-6,-2.625,0
51290,8.625,-11.25,-2.5,0
51310,11.5625,-12.625,1.375,0
51330,13.625,-13.0625,2.1875,0
51350,11.4375,-12.6875,0.625,0
51370,5.8125,-11.5625,-0.125,0
51390,9.0625,-11,-0.375,0
51410,9.4375,-14,-0.9375,0
51430,8.5625,-13.5,0.375,0
51450,9.1875,-14.9375,0.125,0
51470,9.3125,-16.5,-2,0
51490,9.8125,-16.125,-1.4375,0
51510,10.75,-16.375,-2.125,0
51530,11,-15.1875,-5.875,0
51550,10.8125,-14,-5.125,0
51570,12.3125,-14,-4,0
51590,13.1875,-13.75,-6.1875,0
51610,10.875,-11.125,-8.75,0
51630,12.8125,-8.125,-6.9375,0
51650,12.625,-5.75,-1.6875,0
51670,14,-4.5625,-2.8125,0
51690,16.25,-3.0625,-5.6875,0
51710,13.375,-2.25,-4.6875,0
51730,12.125,-3.8125,-2.5,0
51750,12.25,-6.9375,-2.375,0
51770,11.625,-5.125,-2.0625,0
51790,12.25,-6.5625,-3,0
51810,8.875,-6.875,-3.9375,0
51830,8.0625,-6.375,-1.4375,0
51850,7,-6.6875,-0.0625,0
51870,6.6875,-6.125,-3.0625,0
51890,8.4375,-2.875,-4.625,0
51910,7.625,-2.875,-4.75,0
51930,7.5625,-2.375,-6.8125,0
51950,6.4375,-0.375,-8.5,0
51970,6.8125,-2.4375,-12.625,0
51990,6.8125,-1.5,-13.25,0
52010,5.6875,-1.875,-12.5625,0
52030,3.5,-1.9375,-14.875,0
52050,1,-1.3125,-17.9375,0
52070,0.5625,-1.25,-18,0
52090,1.875,-0.625,-16.9375,0
52110,1.4375,1.125,-15.5,0
52130,-0.375,0.5,-13.8125,0
52150,-1,0.375,-14.875,0
52170,-2.5625,1.6875,-14,0
52190,-2.125,5.1875,-10.3125,0
52210,-1.1875,4.375,-5.9375,0
52230,-2.125,3.875,-3.8125,0
52250,-3.4375,5,-3.3125,0
52270,-2,5.4375,-4.6875,0
52290,0.125,4.5,-5.8125,0
52310,-0.125,4.0625,-7.8125,0
52330,-0.1875,6,-8.9375,0
52350,1.9375,6.8125,-8.75,0
52370,3.8125,4.9375,-8.3125,0
52390,4.375,4.1875,-9.375,0
52410,4.25,3.875,-11.9375,0
52430,3.875,4.0625,-12.1875,0
52450,2.625,3.1875,-9.1875,0
52470,2.125,1.5625,-7.125,0
52490,2.375,0.375,-7.75,0
52510,0.375,1.375,-8,0
52530,-0.1875,0.75,-7.4375,0
52550,0.75,-0.75,-5.625,0
52570,0.5625,-0.9375,-3.9375,0
52590,0.6875,-2.4375,-3.875,0
52610,-0.3125,-3.6875,-3.9375,0
52630,-0.25,-4.0625,-2.8125,0
52650,0.6875,-3,-1.375,0
52670,-0.625,-3.4375,2.375,0
52690,-0.625,-3.8125,4.875,0
52710,-1.4375,-2.75,9.4375,0
52730,-2.8125,-3,12,0
52750,-4.25,-1,15.625,0
52770,-5.5625,-2.625,19.0625,0
52790,-5.4375,-2.875,19.125,0
52810,-6.375,-0.8125,19.625,0
52830,-10.75,5.3125,21.1875,0
52850,-14.0625,1.0625,22.875,0
52870,-14.9375,-2.125,24.6875,0
52890,-14.1875,3.6875,22.6875,0
52910,-19.125,2.5,18.3125,0
52930,-24.6875,3.375,16.0625,0
52950,-27.8125,12.375,17.875,0
52970,-33.625,9.5625,14.25,0
52990,-29.5625,6,9.9375,0
53010,-29.5,3.6875,11.875,0
53030,-32.9375,3.8125,15.875,0
53050,-30.8125,6.875,17.8125,0
53070,-29.75,6.8125,13.4375,0
53090,-29.8125,7.9375,7.875,0
53110,-31.8125,4.375,8.0625,0
53130,-28.125,5.6875,12,0
53150,-27.0625,7.75,12.875,0
53170,-23.1875,6.9375,9.625,0
53190,-16.125,5.875,5.0625,0
53210,-10,5,3.625,0
53230,-9.3125,4.625,6.9375,0
53250,-0.3125,5.8125,5.3125,0
53270,1.375,4.25,3.875,0
53290,-4.3125,1.8125,6,0
53310,-5.8125,2.75,7.125,0
53330,-2.5,2.3125,5.6875,0
53350,0.0625,0.1875,2.3125,0
53370,1.625,-1.625,0.375,0
53380,6.9375,-1.125,1.25,0
53400,5.4375,-1.875,1.75,0
53420,1.875,-3.0625,2.0625,0
53440,-0.8125,-3.875,3.3125,0
53460,-1.625,-4,0.875,0
53480,-0.4375,-2,-3,0
53500,0.0625,-0.6875,1.25,0
53520,1.5625,-0.4375,5.6875,0
53540,-0.6875,-0.5625,0.0625,0
53560,-0.6875,1,-5.25,0
53580,-2.875,0.6875,-3.9375,0
53600,0.375,1.1875,0.125,0
53620,1.6875,1.125,0.875,0
53640,0.875,0.625,1.0625,0
53660,-2.0625,0.375,2,0
53680,-2.5,0.625,1.6875,0
53700,-1.375,-0.6875,0.0625,0
53720,2.1875,-2.625,-0.3125,0
53740,4.0625,-3.4375,0.5,0
53760,5.8125,-4.1875,0.8125,0
53780,6.5625,-5.9375,0,0
53800,6.5625,-8.4375,-2.5,0
53820,4.375,-9,-3.75,0
53840,5.9375,-7.6875,-3,0
53860,5.5,-9.5625,-0.125,0
53880,6.5625,-11.625,1,0
53900,5.9375,-9.625,-0.875,0
53920,5.25,-7,-1.25,0
53940,6.8125,-6.9375,0.3125,0
53960,7.625,-10.5625,2,0
53980,5.875,-10.5625,-0.875,0
54000,4.3125,-9.25,-2.75,0
54020,4.4375,-13,-1.4375,0
54040,7.1875,-14.4375,-1.8125,0
54060,10.75,-16.6875,-5.3125,0
54080,8.9375,-15.5625,-5.375,0
54100,5.5625,-14.25,-2.125,0
54120,4.625,-18.4375,-1.4375,0
54140,4.5625,-18.9375,-2.25,0
54160,3.5625,-17.6875,-2.3125,0
54180,0.8125,-17.625,-0.25,0
54200,1.75,-17.375,2.0625,0
54220,1.875,-15.5,1,0
54240,3.375,-14,-1.6875,0
54260,5.25,-13.5,-3.3125,0
54280,6.375,-12.3125,-3.125,0
54300,6.0625,-8.4375,-2.0625,0
54320,5.625,-8.625,-2.5,0
54340,7.6875,-9.4375,-5.5,0
54360,8.0625,-10.625,-5.1875,0
54380,5.6875,-7.375,-4.6875,0
54400,6.4375,-4.375,-5.8125,0
54420,7.625,-2.25,-7.125,0
54440,9.5,0.1875,-7.8125,0
54460,10.5625,3.75,-7.4375,0
54480,6.9375,4.3125,-6.625,0
54500,7.5625,7.0625,-9.5,0
54520,10.5,10.375,-12.625,0
54540,14.5625,17.125,-14.0625,0
54560,12.0625,18,-13.875,0
54580,11.4375,16.4375,-15.9375,0
54600,10.25,14.5,-17.875,0
54620,6.75,15.875,-20.625,0
54640,5.0625,15.4375,-24,0
54660,1.9375,14.0625,-25.625,0
54680,2.375,15.8125,-23.5625,0
54700,5,15.75,-20.6875,0
54720,3.75,14.375,-19.6875,0
54740,0.875,12.625,-18.75,0
54760,-0.3125,10.75,-17.875,0
54780,-2.25,11.8125,-16.0625,0
54800,-2.8125,10.375,-13.5625,0
54820,-2.5,9.25,-8.25,0
54840,-6.625,8.0625,-0.5625,0
54860,-5.25,5.75,8.375,0
54880,-7.3125,2.875,15.125,0
54900,-8.25,-1.3125,16.125,0
54920,-8.25,-3.625,16.3125,0
54940,-9.6875,-3.875,17.1875,0
54960,-8.1875,-6.75,20.75,0
54980,-6.5,-9.3125,23.3125,0
55000,-5.3125,-8.125,22.8125,0
55020,-8.8125,-3,18.3125,0
55040,-10.75,-2.75,14.8125,0
55060,-15.8125,-6.3125,15.8125,0
55080,-18.25,-9.625,20,0
55100,-19.5,-6.3125,20.4375,0
55120,-17.9375,0.1875,15.0625,0
55140,-21.3125,-1.75,9.9375,0
55160,-27.1875,-3.5625,10.4375,0
55180,-28.6875,-3.5,12.875,0
55200,-22.9375,-0.75,9.9375,0
55220,-20,3.3125,7.125,0
55240,-15.6875,0,7.1875,0
55260,-12.375,-0.3125,7,0
55280,-6.6875,3.4375,7.9375,0
55290,-6.375,4.8125,6.3125,0
55310,-12.1875,1.5625,1.75,0
55330,-12.9375,0.375,-0.125,0
55350,-12.625,0.9375,0.5625,0
55370,-13.9375,2.375,0,0
55390,-9.9375,2.75,-0.1875,0
55410,-1.375,3.9375,1.75,0
55430,-0.4375,4.5,4.3125,0
55450,-3.375,4.75,2.75,0
55470,-4.3125,7.0625,5.625,0
55490,-8.625,6.375,9.625,0
55510,-7.25,6.3125,7.5625,0
55530,-2.375,6.4375,3.25,0
55550,-2.4375,8.125,3.5,0
55570,-5.625,8.6875,5.3125,0
55590,-4.375,5.125,5.75,0
55610,3.5625,1.5625,2.9375,0
55630,10.1875,0.3125,2.0625,0
55650,8.125,1.4375,2.875,0
55670,3.25,-0.375,4.0625,0
55690,-1.5625,-6.0625,6.8125,0
55710,-2.3125,-8.375,5.75,0
55730,1.125,-7.0625,1.5,0
55750,4.5,-6.75,1.5625,0
55770,3.1875,-7.4375,2.8125,0
55790,2.875,-8.375,1.4375,0
55810,3.9375,-7.75,-0.875,0
55830,5.4375,-7.0625,-1.5625,0
55850,7,-7.625,-0.0625,0
55870,4.5625,-6.875,2.5,0
55890,1.8125,-6.1875,3.1875,0
55910,-0.625,-6.5,0.125,0
55930,-0.125,-7.125,-1.0625,0
55950,0.9375,-9.5,0.6875,0
55970,2.5625,-9.375,1.6875,0
55990,3.8125,-7.3125,0.8125,0
56010,6.1875,-5.5,-0.5625,0
56030,7.0625,-5.4375,-0.125,0
56050,7.4375,-6.625,-3,0
56070,10.25,-5,-6.9375,0
56090,11.0625,-4.125,-5.1875,0
56110,8.0625,-4.875,-1.75,0
56130,7.1875,-4.9375,-2,0
56150,4.125,-5,-3.5,0
56170,5.625,-5.1875,-3.1875,0
56190,4.6875,-5.1875,-1.5625,0
56210,4.6875,-6.6875,-0.3125,0
56230,4,-7.125,-2.25,0
56250,3.375,-5.4375,-5.75,0
56270,4.1875,-4.1875,-4.9375,0
56290,4,-6.5,-3.375,0
56310,5.9375,-7.125,-4.4375,0
56330,7.25,-3.625,-9.125,0
56350,7.0625,-0.25,-10.5625,0
56370,5.5625,-2.125,-9.6875,0
56390,7.3125,-3.1875,-11.625,0
56410,6,-3.4375,-15.875,0
56430,6.625,-1,-19.8125,0
56450,7.375,-0.625,-20.75,0
56470,5.3125,1.125,-20.125,0
56490,3.9375,3.3125,-20.0625,0
56510,5.5,5.25,-18.1875,0
56530,4.75,4.8125,-14,0
56550,1.3125,0.6875,-8,0
56570,-1.1875,-2.25,-1.625,0
56590,-4.125,-1.4375,4.625,0
56610,-9.8125,-1,9.125,0
56630,-12.125,-0.0625,11.375,0
56650,-14.0625,-1.5625,15.4375,0
56670,-16.5625,-4.4375,18.25,0
56690,-14.5625,-3.25,17.75,0
56710,-12.9375,3.75,16.375,0
56730,-12.375,6.5,13.5,0
56750,-13.8125,1.25,9.75,0
56770,-15,-4.625,8.5,0
56790,-15.75,-0.125,8.4375,0
56810,-12.6875,4.1875,7.875,0
56830,-9.875,5.9375,1.3125,0
56850,-6.8125,4,-2.4375,0
56870,-5.5,3.5625,0.0625,0
56890,-2.625,9.125,2.5625,0
56910,-0.3125,11.1875,0.5,0
56930,0.0625,7.625,-5.1875,0
56950,-2.5625,3.6875,-0.9375,0
56970,-6.5625,-0.5625,5.4375,0
56990,-8.9375,-1.375,3.5625,0
57010,-8.5625,-1,-1.375,0
57030,-4.5625,-2.3125,-3.3125,0
57050,0.5625,-1.6875,-2.25,0
57070,4.0625,-1.0625,0.3125,0
57090,0.3125,-1.0625,0.0625,0
57110,-3.0625,-0.75,0.0625,0
57130,-5.6875,1.1875,-0.8125,0
57150,-2.75,4.0625,-0.1875,0
57170,1.25,3.875,1.5,0
57190,1.3125,2.9375,1.375,0
57210,-0.875,2.9375,1.125,0
57230,-3.375,3.875,1,0
57250,-1.25,3.9375,1.5,0
57270,0.1875,3.8125,0.375,0
57290,-0.3125,3,0.0625,0
57310,1.375,2.25,0.9375,0
57330,0.25,2.625,0.5625,0
57350,-1.0625,2.5625,-0.75,0
57370,-1.8125,2.3125,0.0625,0
57390,-1.0625,1.0625,0.6875,0
57410,-0.375,0.375,0.1875,0
57430,-0.875,0.5,-0.4375,0
57450,-3.25,-0.0625,-0.25,0
57470,-2.5,-1.25,1.3125,0
57490,-2.5,-0.875,1.5,0
57510,-3.5,-0.375,0.25,0
57530,-1.25,-0.25,-0.125,0
57550,-0.125,-0.75,-0.1875,0
57570,-0.9375,-0.3125,2,0
57590,-0.1875,-1,3.375,0
57610,0.5,-0.6875,1.0625,0
57630,1.5,0.625,-0.4375,0
57650,1.125,0.5625,-0.5625,0
57670,-0.125,0.3125,1.875,0
57690,1.25,-1,1.375,0
57710,3.125,-1.1875,0.625,0
57730,2.1875,-1.6875,2.75,0
57750,0.5625,-1.5625,3.1875,0
57770,-1.625,-1.625,0.1875,0
57790,0.625,-2.8125,-1.1875,0
57810,4.1875,-3,0.0625,0
57830,4.375,-4.875,2.1875,0
57850,4.125,-5.625,2.75,0
57870,3.1875,-4.3125,1.6875,0
57890,2.3125,-4.0625,1.6875,0
57910,2.5,-5.375,3.0625,0
57930,4,-6.0625,3.5,0
57950,3.625,-3.8125,2.625,0
57970,2.75,-3,3.0625,0
57990,0.8125,-4.1875,6.3125,0
58010,0.875,-3.1875,6.25,0
58030,1.75,-1.6875,4.25,0
58050,0.6875,-0.875,4.4375,0
58070,0.3125,-0.375,5.375,0
58090,1.125,0.625,5.3125,0
58110,3.0625,1.5,3.4375,0
58130,2.9375,1.0625,3.4375,0
58150,1.375,-0.1875,2.6875,0
58170,4.1875,-0.6875,1.4375,0
58190,4.9375,-1.125,0.9375,0
58210,4.875,-1.5625,0.5,0
58230,2.9375,-2.0625,0.5625,0
58250,3.0625,-2,-0.3125,0
58270,3.8125,-1.625,-1.8125,0
58290,3.6875,-1.625,-1.6875,0
58310,3.3125,-2.875,-0.5625,0
58330,1.25,-2.5625,-0.3125,0
58350,0.4375,-2.1875,-0.25,0
58370,1.9375,-3.375,-1.125,0
58390,3.5,-4,-2.25,0
58410,2.4375,-3.4375,-2.5,0
58430,2,-4.25,-0.75,0
58450,0.4375,-4.6875,0.5625,0
58470,0.625,-5.125,-0.4375,0
58490,1.25,-5.625,-1.5,0
58510,1.875,-7.0625,-0.75,0
58530,2.4375,-9.375,0.9375,0
58550,1.9375,-9.625,1.875,0
58570,1.8125,-8.3125,0.6875,0
58580,2.25,-10.125,0.375,0
58600,2.875,-10.9375,0.9375,0
58620,3.4375,-11.6875,1.8125,0
58640,2.875,-10.9375,2.0625,0
58660,1.6875,-9.6875,3.8125,0
58680,-0.5,-12.875,5.25,0
58700,1.1875,-10.375,9.125,0
58720,-4.0625,-6.125,11.8125,0
58740,-3.625,-5.1875,12,0
58760,-7.5,-4.75,15.6875,0
58780,-8.625,-9.0625,30.3125,0
58800,-11,-8.125,40.8125,0
58820,-16.625,-4.875,56.375,0
58840,-21.625,-10.375,65.0625,0
58860,-19.0625,-20.25,56.6875,0
58880,-21.9375,-25.5,51.25,0
58900,-26.25,-27.375,45.0625,0
58920,-18.6875,-24.9375,32.125,0
58940,-13.6875,-18.375,28.1875,0
58960,-9.25,-15.125,31.8125,0
58980,-2.625,-14.5,26.0625,0
59000,2.875,-8.8125,8.8125,0
59020,4.125,4.4375,-12.6875,0
59040,10.4375,18.8125,-22.875,0
59060,12.5,32.125,-17,0
59080,15.375,39.8125,-11.375,0
59100,18.5625,43.8125,-14.4375,0
59120,18,43.875,-19,0
59140,16.25,43.4375,-20.375,0
59160,18.875,41.125,-20.5625,0
59180,23.5625,36.5625,-19.5,0
59200,21.0625,29.625,-12,0
59220,16.75,22.4375,-3.6875,0
59240,9.625,16,0.625,0
59260,9.6875,7.9375,2.5,0
59280,4.5625,4.3125,5.25,0
59300,2.625,0.5,10.9375,0
59320,2.4375,-0.5,16.6875,0
59340,-0.0625,-6.5625,17.0625,0
59360,-1.5,-13.1875,15.5625,0
59380,-3.5625,-17.0625,12.4375,0
59400,-1.5,-19.6875,7.6875,0
59420,-1.0625,-17.8125,-0.6875,0
59440,1.0625,-13.5,-6.375,0
59460,0.3125,-9.0625,-9.625,0
59480,-1.3125,0.0625,-15.9375,0
59500,-1.4375,8.6875,-19.25,0
59520,1.75,9.1875,-20.75,0
59540,1.875,11.875,-25.375,0
59560,5.5,17.4375,-29.875,0
59580,6.5625,14.5,-31.125,0
59600,-2.3125,14.0625,-27.3125,0
59620,-11.25,17.3125,-24.125,0
59640,-14.4375,18.375,-25.9375,0
59660,-14.6875,13.875,-28.5,0
59680,-15.3125,10.125,-27,0
59700,-13.0625,12.375,-21.875,0
59720,-10.5,12.9375,-19,0
59740,-8.6875,4.875,-19.6875,0
59760,-5.4375,-2.0625,-21.75,0
59780,-5,-4.375,-19.25,0
59800,-8.0625,-6.6875,-11.4375,0
59820,-11.3125,-9.3125,-6,0
59840,-10.75,-10.625,-5.25,0
59860,-8.875,-7.875,-3.9375,0
59880,-8.6875,-7.625,0.3125,0
59900,-8.75,-8.6875,2.3125,0
59920,-6,-7.75,2.0625,0
59940,-8.375,-5.5,2.5,0
59960,-1.875,-1.9375,2.125,0
59980,1.25,0.875,1.4375,0
60000,-0.3125,1.0625,4.1875,0
60020,0.625,0.625,3.625,0
60040,-0.875,1.875,0.1875,0
60060,2.5625,3.625,-0.1875,0
60080,3.625,2.8125,0.4375,0
60100,1.25,0.0625,0.625,0
60120,-2.4375,-1.5,2.5625,0
60140,-0.5625,-1.625,0.8125,0
60160,3.125,-0.9375,-1,0
60180,3.5625,-1.0625,0.25,0
60200,1.875,-2.5,2.75,0
60220,0.8125,-3,3,0
60240,-0.8125,-3,1,0
60260,0.3125,-2.625,-1.1875,0
60280,2.75,-2.5625,-1.8125,0
60300,4.625,-3.1875,-1.4375,0
60320,5.6875,-3.75,0.6875,0
60330,2.125,-4.625,-0.375,0
60360,1,-3.5625,-2.3125,0
60380,2.0625,-3.25,-1.375,0
60400,5.25,-4.125,0.75,0
60420,5.75,-5.1875,1.375,0
60440,4.1875,-4.6875,0.5,0
60460,2.375,-3.8125,1.0625,0
60470,2.8125,-4,1.9375,0
60490,4.4375,-3.0625,2.625,0
60510,5.8125,-3.25,4.375,0
60530,6.1875,-4.5625,6,0
60550,5.5625,-4.125,7.875,0
60570,7.25,-4.125,10.75,0
60590,10.875,-4.6875,13.75,0
60610,13.5625,-5.25,12.125,0
60630,16.625,-4.8125,10.1875,0
60650,18.875,-6.6875,16,0
60670,15.5625,-7.9375,22.625,0
60690,12.4375,-4.9375,22.9375,0
60710,15.1875,-3.125,20.4375,0
60730,21.1875,-2.3125,20.8125,0
60750,22.8125,-1.375,27.3125,0
60770,25.5625,-2.375,32.6875,0
60790,26.8125,0.1875,27.3125,0
60810,42.0625,-3.625,29,0
60830,52.3125,-16.125,41.4375,0
60850,47.5,-27.4375,53.75,0
60870,43.4375,-34.9375,47.625,0
60890,43.25,-39.875,44.4375,0
60910,43.4375,-36.9375,52,0
60930,50.0625,-34.9375,61.25,0
60950,63.6875,-35.375,58.6875,0
60970,70.4375,-34.5,46.5,0
60990,67.5625,-33.6875,43.75,0
61010,53.625,-29.375,44.6875,0
61030,38.25,-25.8125,42.1875,0
61050,26.5,-24.6875,34.8125,0
61070,21,-21.375,25.5,0
61090,13.5,-15.3125,22.875,0
61110,2.125,-8.9375,23.625,0
61130,2.125,-9.375,21.6875,0
61150,0.1875,-7.125,16.9375,0
61170,-1.625,-3.125,15.1875,0
61190,0.6875,-5.5625,15.6875,0
61210,-1.375,-9.625,10.4375,0
61230,-4.8125,-10.0625,5.5,0
61250,-10.125,-11.4375,6.9375,0
61270,-13.75,-13.5,4.875,0
61290,-27.6875,-17.25,10.0625,0
61310,-22.125,-19.1875,19.6875,0
61330,-24.25,-17.4375,18.1875,0
61340,-25.0625,-20.9375,2.125,0
61360,-36.0625,-12.1875,21.5625,0
61380,-29.125,-15.4375,31.25,0
61400,-12.875,-13.8125,30.75,0
61420,-7,-8.0625,20.9375,0
61440,-6.625,-1.4375,19.125,0
61460,-8.1875,-2.5,15.3125,0
61480,0.375,-5.3125,12.5,0
61500,6.75,-3.875,8.375,0
61520,2.1875,-2.6875,6.4375,0
61540,-4.75,-0.75,8.125,0
61560,-4.3125,3.8125,13.125,0
61580,-9.25,6.25,8.8125,0
61600,-4.8125,2.125,5.0625,0
61620,-4.125,-0.6875,7.1875,0
61640,-5.4375,-1.9375,7.625,0
61660,-6.0625,-1.875,2.5625,0
61680,-6.375,-0.1875,-2.4375,0
61700,-4.375,-0.0625,-3.125,0
61720,-0.4375,0.4375,-3.625,0
61740,0.1875,1.1875,-6.625,0
61760,-1.4375,3,-9.875,0
61780,-2.125,1.9375,-8.9375,0
61800,-1.375,-0.375,-5.9375,0
61820,-1.8125,-1.75,-1.75,0
61840,-3.125,-2.625,-0.3125,0
61860,-5.5625,2.0625,-1.875,0
61880,-10.375,3.375,-2.4375,0
61900,-13.9375,3.625,-0.3125,0
61920,-21,2.75,-1.3125,0
61940,-16.75,2.3125,1.8125,0
61960,-13.8125,0.625,1.6875,0
61980,-17.5,-1.3125,-2.125,0
62000,-13,1.8125,8.25,0
62020,-21.125,6.5625,20.9375,0
62040,-17.5,6.625,8.125,0
62060,-13.125,4.125,1.25,0
62070,-4.125,4.75,6.125,0
62090,-5.9375,6.125,4.875,0
62110,-10.0625,7.5,-2.75,0
62130,-14.8125,7.25,-6.8125,0
62150,-13.375,4.8125,-7.25,0
62170,-9.9375,3.3125,-4.1875,0
62190,-6,3.25,-2.3125,0
62210,-3,1.1875,-2.0625,0
62230,-1.6875,-0.125,-2.0625,0
62250,-2.875,-0.375,0.0625,0
62270,1.0625,0.3125,0.4375,0
62290,2.5625,0.6875,-1.4375,0
62310,4.8125,2.25,-5.5625,0
62330,6.1875,3.9375,-9.0625,0
62350,10,5.1875,-11.4375,0
62370,12.9375,5.875,-12.6875,0
62390,12.875,7,-14.6875,0
62410,10.75,9.375,-16.6875,0
62430,13.25,11.75,-18.5625,0
62450,17.4375,13.0625,-21.125,0
62480,18.3125,14.125,-30.25,0
62500,20.1875,16.375,-32.9375,0
62520,25.75,17.75,-36,0
62540,24.3125,14.4375,-39.375,0
62570,19.9375,18.6875,-51.125,0
62580,24.625,19.75,-50.375,0
62600,28.875,18.625,-58.625,0
62620,28.1875,18.3125,-62.4375,0
62640,28.5,18.625,-62.4375,0
62660,30.9375,19.0625,-66.5,0
62680,27.8125,16.125,-68.1875,0
62700,26.0625,16,-64.5625,0
62720,20,16.25,-60.1875,0
62740,16.0625,12.3125,-54.3125,0
62760,10.125,8,-53.1875,0
62780,4.9375,6.375,-52,0
62800,1.875,7.8125,-50.3125,0
62820,5.3125,6.5,-44.5,0
62840,4.875,3.5,-36,0
62860,-2.1875,2.75,-28.6875,0
62880,-7.75,2.25,-21.25,0
62900,-11.125,0.25,-16.875,0
62920,-8.375,1.0625,-18.1875,0
62940,-6.5625,1.8125,-17.4375,0
62960,-4.375,2,-12.75,0
62980,-2.9375,1.0625,-7.0625,0
63000,-3.75,1.0625,-5.0625,0
63020,-6.4375,1.75,-5.4375,0
63040,-5.8125,2.8125,-4.25,0
63060,-3.9375,2.3125,-3,0
63080,-2.1875,1.25,-3.625,0
63100,-0.875,1.125,-4.4375,0
63120,-0.5,1.0625,-3.6875,0
63140,-1.1875,1.8125,-5.8125,0
63160,-1.3125,1.875,-7.875,0
63180,-0.0625,1.6875,-8.8125,0
63200,0.5625,1.25,-10.3125,0
63220,-2.875,1.875,-11.625,0
63240,-6,3.75,-13.125,0
63260,-8.125,7.25,-15.625,0
63280,-10.625,10.5625,-18.8125,0
63300,-11.3125,15.875,-20.9375,0
63320,-14.75,22.75,-22.0625,0
63340,-20.375,33.5,-23.875,0
63360,-21.5,49.625,-25.875,0
63380,-20.125,62.4375,-22.875,0
63400,-24.625,80.8125,-21.5625,0
63420,-29.625,95.9375,-16.4375,0
63440,-27.9375,105.812,-11.5625,0
63460,-19.1875,117.062,-8.5,0
63480,-10.9375,126.625,-3,0
63500,-26.25,137.188,9.125,0
63520,-23.125,141.25,35.3125,0
63540,-20.9375,148.312,58,0
63560,-25.375,144.875,55.8125,0
63580,-18.8125,140.562,44,0
63600,-15.75,135.75,45.9375,0
63620,-14.6875,129.938,51.5625,0
63640,-8.5,123,56.875,0
63660,-4.75,119.5,52.25,0
63680,-3.8125,111.75,44.5625,0
63690,-2.5625,96.3125,38.9375,0
63710,3.8125,85.625,36.5,0
63730,11.125,76.8125,35.5625,0
63750,17.6875,67.9375,28.8125,0
63770,24.75,60.625,21.75,0
63790,32.8125,50.625,13.8125,0
63810,44.4375,36.9375,3.625,0
63830,31.625,9.3125,-14.6875,0
63850,17.875,-19.4375,-12.8125,0
63870,-11.0625,-18.3125,-6.75,0
63890,-16.75,1.5625,-1.125,0
63910,0.9375,9.0625,7.8125,0
63930,12.75,12.3125,5.4375,0
63950,17.4375,11.875,3.4375,0
63970,17.5,12.125,-0.3125,0
63990,19.25,11.875,-2.8125,0
64010,21.875,8.375,-6,0
64030,23.375,3.625,-10.5625,0
64050,17.125,1.4375,-14.625,0
64070,11,1.75,-15.0625,0
64090,3.125,-0.8125,-6.9375,0
64110,1.0625,-4.1875,-0.5625,0
64130,-1.125,-1.6875,1.5625,0
64150,6.75,1.375,3.0625,0
64170,13.6875,1.125,4.375,0
64190,11.625,-3.125,2.8125,0
64210,7.75,-7.6875,0.25,0
64230,4.6875,-7.9375,1.4375,0
64250,4.9375,-3.125,3.3125,0
64270,7,0.875,3.0625,0
64290,10.0625,-0.25,2.6875,0
64310,8.875,-2.4375,1.375,0
64330,5.9375,-3.125,1.3125,0
64350,3.8125,-2.125,1.125,0
64370,3.25,-0.6875,1.5,0
64390,2,-0.375,1.8125,0
64410,1.0625,-0.4375,1.9375,0
64430,-0.3125,-0.875,2.0625,0
64450,-0.8125,-1,1.8125,0
64470,-1.1875,-0.75,1.25,0
64490,-0.875,-0.6875,0.875,0
64510,-0.75,-0.5625,0,0
64530,1,-1.0625,-0.3125,0
64550,1.25,-1.3125,-1.1875,0
64570,0.6875,-1.3125,-1.3125,0
64590,0.5,-0.75,-0.875,0
64610,-0.125,-0.375,-0.4375,0
64630,-0.1875,-0.6875,0.1875,0
64650,-0.8125,-0.8125,0.6875,0
64670,-1.3125,-0.75,0.875,0
64690,-0.625,-0.9375,1,0
64710,0.1875,-0.8125,0.5,0
64730,0.3125,-1,0.1875,0
64750,1.25,-1.25,0.25,0
64770,1.5,-1.5625,-0.0625,0
64790,2.1875,-1.75,0,0
64810,2.625,-1.6875,-0.0625,0
64830,3.125,-1.75,-0.125,0
64850,4.0625,-2,-0.3125,0
64870,4.3125,-2.5625,-0.4375,0
64890,4.9375,-2.75,-0.375,0
64910,5.25,-2.375,-0.5625,0
64930,4.625,-2.1875,-1,0
64950,3.8125,-2.5625,-1.6875,0
64970,3.3125,-2.6875,-1.125,0
64990,3.3125,-2.5,-0.375,0
65010,4,-2.25,0.0625,0
65030,4.375,-2.4375,0.4375,0
65050,4,-2.6875,0.5,0
65070,3,-2.4375,0.625,0
65090,2.5625,-2.0625,1,0
65110,1.9375,-1.6875,0.875,0
65130,1.8125,-1.5625,0.4375,0
65150,1.375,-1.75,0.1875,0
65170,1.125,-1.6875,0.5,0
65190,0.8125,-1.4375,0.3125,0
65210,0.6875,-1.5,-0.25,0
65230,0.5625,-1.4375,-0.25,0
65250,0.625,-1.25,-0.125,0
65270,0.5,-1.25,-0.3125,0
65290,-0.25,-1.25,-0.625,0
65310,-0.375,-1.0625,-0.5625,0
65330,-0.75,-1,-0.5,0
65350,-1.0625,-0.875,-0.375,0
65370,-1.25,-0.875,0,0
65390,-1.4375,-0.75,0.5625,0
65410,-1.625,-0.6875,0.8125,0
65430,-1.75,-0.6875,0.9375,0
65450,-1.9375,-0.5,0.8125,0
65470,-2.125,-0.375,0.625,0
65490,-2,-0.375,0.4375,0
65510,-1.5625,-0.75,0.125,0
65530,-1.25,-0.875,-0.625,0
65550,-0.75,-0.9375,-0.8125,0
65570,-0.5625,-0.875,-0.875,0
65590,-0.6875,-0.875,-0.75,0
65610,-0.75,-0.8125,-0.0625,0
65620,-0.6875,-1,0.375,0
65640,-0.1875,-0.8125,0.5625,0
65660,-0.875,-0.9375,-0.125,0
65680,-1.0625,-1.25,-0.6875,0
65700,-1,-1.1875,-0.5,0
65720,-0.8125,-0.875,0.25,0
65740,-0.8125,-0.875,0.3125,0
65760,0.0625,-1.1875,0.125,0
65780,0.4375,-1.3125,-0.5,0
65800,1,-1.5625,-0.875,0
65820,0.9375,-1.4375,-0.875,0
65840,1.1875,-1.25,-0.625,0
65860,0.5625,-1,-0.5625,0
65880,0.625,-1.3125,-0.1875,0
65900,0.75,-1.0625,0.25,0
65920,0.9375,-1.125,0.4375,0
65940,0.5625,-1.25,0.0625,0
65960,0.5,-1.25,0,0
65980,0.75,-1.25,0.1875,0
66000,0.9375,-1.125,0.125,0
66020,0.6875,-1.0625,0.3125,0
66040,0.125,-1,0.125,0
66060,-0.8125,-1.0625,0.125,0
66080,-0.875,-0.9375,0.0625,0
66100,-0.8125,-1.0625,0.0625,0
66120,-0.625,-0.9375,-0.0625,0
66140,-0.1875,-0.9375,0,0
66160,0.125,-1,0.125,0
66180,0.1875,-1,0.0625,0
66200,0.375,-1.125,0.0625,0
66220,0.375,-1.0625,0,0
66240,0.1875,-0.875,0.0625,0
66260,-0.1875,-1.125,0,0
66280,-0.5,-1,0.0625,0
66300,-0.5625,-1,0.125,0
66320,-0.1875,-0.8125,0.375,0
66340,-0.125,-1.0625,0.25,0
66360,0.5625,-1.125,0.5625,0
66380,0.75,-1.25,0.75,0
66400,0.625,-1,0.5625,0
66420,-0.5625,-1.1875,-0.125,0
66440,-1,-1.4375,-0.6875,0
66460,-0.875,-1.125,-0.125,0
66480,-1.25,-0.8125,0.25,0
66500,-0.6875,-0.9375,0.25,0
66520,-0.5625,-1.0625,-0.1875,0
66540,-0.1875,-1.1875,-0.5,0
66560,-0.125,-1.25,-0.4375,0
66580,0.3125,-0.8125,-0.1875,0
66600,-0.375,-0.9375,-0.125,0
66620,-1.375,-0.875,-0.25,0
66640,-0.9375,-1,0.125,0
66660,-0.375,-0.6875,0.6875,0
66680,0.0625,-0.9375,0.4375,0
66700,-0.375,-1,-0.1875,0
66720,0,-1.125,-0.125,0
66740,-0.25,-1.0625,0,0
66760,0.25,-1,0.0625,0
66780,0.1875,-0.875,-0.125,0
66800,-0.5,-1,-0.375,0
66820,-0.9375,-0.875,-0.25,0
66840,-1.0625,-0.9375,-0.25,0
66860,-1.1875,-0.6875,-0.125,0
66880,-0.9375,-0.75,0.0625,0
66900,-1.1875,-0.875,0.25,0
66920,-0.6875,-0.8125,0.5625,0
66940,-0.4375,-0.875,0.375,0
66960,-0.25,-0.875,0.375,0
66980,-0.125,-0.9375,0.1875,0
67000,-0.3125,-1.1875,0.0625,0
67020,-0.25,-1,0,0
67040,-0.5,-0.9375,0.0625,0
67060,-0.5625,-0.875,0.125,0
67080,-0.625,-1,-0.125,0
67100,-0.375,-1.0625,-0.0625,0
67120,-0.625,-0.8125,0,0
67140,-0.75,-0.9375,0.125,0
67160,-0.4375,-0.9375,0.375,0
67180,-0.25,-0.9375,0.8125,0
67200,-0.6875,-0.75,0.6875,0
67220,-1.5,-0.75,0,0
67240,-1.625,-1.125,-0.75,0
67260,-1.125,-0.625,-0.0625,0
67280,-1.5625,-0.5625,0.5,0
67300,-1.3125,-0.5,0.6875,0
67320,-0.8125,-0.625,0.4375,0
67340,-0.5,-1.0625,0.0625,0
67360,-0.3125,-1.125,-0.1875,0
67380,0.125,-0.75,0.0625,0
67400,-0.875,-0.8125,0.375,0
67420,-1.25,-0.5,0.625,0
67440,-0.8125,-0.75,0.875,0
67460,0.125,-0.625,1.1875,0
67480,0.4375,-0.6875,1.125,0
67500,0.1875,-1,0.5,0
67520,0.625,-1.0625,0.375,0
67540,0.8125,-1,0.6875,0
67560,0.8125,-1,0.75,0
67580,0.6875,-0.9375,0.3125,0
67600,0.3125,-0.9375,0.125,0
67620,-0.125,-0.9375,0.0625,0
67640,-0.5625,-0.8125,0.1875,0
67660,-0.75,-0.8125,0.375,0
67680,-0.8125,-0.875,0.1875,0
67700,-0.25,-0.9375,0.6875,0
67720,-0.3125,-0.75,0.9375,0
67740,-0.0625,-0.75,0.8125,0
67760,0.0625,-0.8125,0.625,0
67780,-0.125,-0.6875,0.6875,0
67800,-0.3125,-0.625,0.5625,0
67820,-0.4375,-0.5,0.4375,0
67840,-0.625,-0.375,0.5,0
67860,-0.1875,-0.4375,0.4375,0
67880,-0.625,-0.6875,0.4375,0
67900,-0.3125,-0.6875,0.125,0
67920,-0.3125,-0.6875,0.1875,0
67940,-0.5,-0.75,0.25,0
67960,0.375,-0.875,0.375,0
67980,1,-0.8125,0.5,0
68000,0.375,-0.75,0.4375,0
68020,-0.625,-0.9375,-0.0625,0
68040,-0.6875,-0.8125,0.25,0
68060,-0.5,-0.625,0.875,0
68080,-0.625,-0.75,0.9375,0
68100,-0.1875,-0.875,1.0625,0
68120,0.4375,-0.9375,0.75,0
68140,0.375,-1.5625,-0.0625,0
68160,1.1875,-1.4375,-0.6875,0
68180,0.6875,-1,-0.3125,0
68200,0.25,-0.9375,-0.1875,0
68220,0.1875,-1.3125,0.1875,0
68240,0.75,-1,0.9375,0
68260,0.75,-1.0625,0.375,0
68280,0.25,-1.3125,-0.125,0
68300,0.9375,-1.5625,-0.0625,0
68320,1.875,-1.5,0,0
68340,2.6875,-1.375,-0.125,0
68360,2.1875,-1.5625,-0.3125,0
68380,1.4375,-1.375,-0.125,0
68400,1.0625,-1.3125,-0.0625,0
68420,0.9375,-1.3125,-0.375,0
68440,0.9375,-1.4375,-0.375,0
68460,1.0625,-1.375,-0.3125,0
68480,0.9375,-1.3125,-0.0625,0
68500,0,-1.1875,0.3125,0
68520,0.75,-1.625,0.375,0
68540,1.9375,-1.875,0.6875,0
68560,2.8125,-1.75,0.0625,0
68580,3.625,-1.625,0.125,0
68600,2.6875,-1.8125,1,0
68620,1.75,-1.0625,1.25,0
68640,1.5625,-1.0625,1.4375,0
68660,1.3125,-1.125,1.125,0
68680,0.5,-1.5,1.25,0
68700,0.1875,-1.75,1.125,0
68720,2.4375,-2.1875,0.75,0
68740,3.9375,-2.25,0.1875,0
68760,3.4375,-2.8125,-0.75,0
68780,2,-2.9375,-1.75,0
68800,0.625,-2.1875,-2.1875,0
68820,-0.3125,-1.75,-2.0625,0
68840,-0.625,-1.5625,-1.75,0
68860,-1.625,-1.5,-1.8125,0
68880,-3.1875,-1.4375,-2.125,0
68900,-4.0625,-1.1875,-2.125,0
68910,-4.375,-0.5625,-1.375,0
68930,-6.0625,-0.3125,-0.75,0
68950,-7.125,-0.4375,-0.6875,0
68970,-6.375,-0.5625,-1.25,0
68990,-5.6875,-0.375,-1.375,0
69010,-5.3125,-0.625,-1.625,0
69030,-4.1875,-1.1875,-2,0
69050,-2.6875,-1.4375,-2.125,0
69070,-0.875,-1.5,-2.75,0
69090,0.4375,-1.9375,-3.3125,0
69110,0.9375,-2,-3.4375,0
69130,0.375,-1.375,-3.1875,0
69150,-0.5625,-0.875,-2.6875,0
69170,-1.0625,-1,-1.6875,0
69190,-1.0625,-0.875,-0.6875,0
69210,-1.6875,-1,0.3125,0
69230,-2.9375,-0.9375,0.875,0
69250,-2.8125,-1.375,1,0
69270,-0.8125,-1.5625,1.0625,0
69290,0.75,-1.625,0.3125,0
69310,1.1875,-1.875,-0.4375,0
69330,1.375,-1.8125,-1.125,0
69350,1.3125,-1.875,-1.25,0
69370,1.3125,-2,-0.9375,0
69390,1.5625,-1.8125,-0.625,0
69410,1.5,-1.75,-0.9375,0
69430,1.5625,-1.8125,-0.875,0
69450,1.9375,-1.8125,-0.375,0
69470,2.75,-1.6875,-0.0625,0
69490,1.625,-1.4375,0.0625,0
69510,0.1875,-1.5625,0.125,0
69530,-2.625,-1.8125,-0.0625,0
69550,0,-1.375,0.25,0
69570,-0.3125,-1.1875,0.875,0
69590,-0.3125,-1.25,0.5,0
69610,0.25,-1.4375,0.125,0
69630,-0.1875,-1.375,-0.125,0
69650,-0.25,-1.125,-0.25,0
69670,0.0625,-0.75,-0.125,0
69690,-0.8125,-0.9375,-0.125,0
69710,-1.4375,-0.5625,-0.25,0
69730,-0.875,-0.6875,0.125,0
69750,-0.375,-0.6875,0.3125,0
69770,0.5,-0.75,0.1875,0
69790,0.0625,-0.9375,0,0
69810,1.125,-1.125,0.5,0
69830,1.3125,-1.125,0.5625,0
69850,2.0625,-1.3125,0.3125,0
69870,2.8125,-1.5625,0.25,0
69890,2.75,-1.625,0.5625,0
69910,2.125,-1.25,0.875,0
69930,1.1875,-0.9375,0.75,0
69950,0.125,-0.9375,0.6875,0
69970,-0.875,-0.6875,0.8125,0
69990,-1.125,-0.625,1.125,0
70010,-1.0625,-0.5625,1.125,0
70030,-0.4375,-0.625,0.875,0
70050,0.6875,-0.8125,0.8125,0
70070,1.5,-1,0.5625,0
70090,1.1875,-1.3125,-0.125,0
70110,0.5,-1.1875,-0.1875,0
70130,-0.25,-0.9375,-0.25,0
70150,-1.125,-0.8125,-0.3125,0
70170,-1.9375,-0.625,-0.3125,0
70190,-2.4375,-0.625,-0.0625,0
70210,-2,-0.8125,0.25,0
70230,-0.8125,-0.8125,0.5625,0
70250,-0.3125,-0.5625,0.5625,0
70270,-1.0625,-0.75,0.1875,0
70290,-2.125,-0.9375,-0.125,0
70310,-2.1875,-0.6875,0.1875,0
70330,-2.25,-0.4375,0.625,0
70350,-2.1875,-0.375,0.6875,0
70370,-1.4375,-0.875,0.5625,0
70390,-0.875,-1.1875,0.1875,0
70410,-1,-1.125,0,0
70430,-0.375,-1,-0.0625,0
70450,-0.6875,-1,0,0
70470,-0.0625,-1.25,0.3125,0
70500,0.5,-0.8125,0.8125,0
70520,0,-0.6875,0.75,0
70540,-0.5,-0.9375,0.375,0
70560,0.125,-1.125,0.625,0
70580,0.4375,-1,0.5,0
70600,1.0625,-1,0.25,0
70620,0.625,-1.125,-0.0625,0
70640,0.1875,-1,0.0625,0
70660,-0.6875,-1,-0.0625,0
70680,-0.9375,-0.75,0,0
70700,-1.3125,-0.5625,0.25,0
70720,-2.125,-0.5,0.5,0
70730,-3.0625,-0.375,0.375,0
70760,-2.875,-0.375,0.4375,0
70780,-1.875,-0.625,0.125,0
70800,-0.875,-0.6875,-0.25,0
70820,-0.875,-0.6875,-0.1875,0
70830,-1.6875,-0.5,-0.0625,0
70850,-2.3125,-0.5625,-0.125,0
70870,-1.375,-0.75,0,0
70890,0.875,-1.0625,-0.25,0
70910,2.5625,-1.3125,-0.4375,0
70930,2.75,-1.1875,-0.4375,0
70950,2,-1.125,-0.125,0
70970,2.5625,-1.3125,0.5,0
70990,3.9375,-1.3125,0.8125,0
71010,4.625,-1.375,0.875,0
71030,3.5,-1.5,0.625,0
71050,2.25,-1.375,0.125,0
71070,1.875,-1.1875,0.5625,0
71090,1.6875,-1.125,0.75,0
71110,1.8125,-1.1875,0.875,0
71130,1.8125,-1.1875,0.375,0
71150,1.3125,-1.3125,0.0625,0
71170,1.0625,-1.1875,-0.0625,0
71190,1.0625,-0.9375,0.0625,0
71210,0,-0.5625,0.0625,0
71230,-1.125,-0.6875,0.125,0
71250,-1.0625,-0.5625,0.625,0
71270,-0.375,-0.5,1,0
71290,0.5,-1,0.8125,0
71310,2.125,-1.4375,0.5,0
71330,3.5625,-1.5625,-0.125,0
71350,3.75,-1.5625,-0.375,0
71370,3.4375,-1.6875,-0.375,0
71390,3.3125,-1.5625,-0.3125,0
71410,3.1875,-1.5,0,0
71430,2.875,-1.25,0.0625,0
71450,2.75,-1.0625,0.5625,0
71470,1.5625,-1.125,0.875,0
71490,0.9375,-1,1.0625,0
71510,1.0625,-1.125,1.125,0
71530,1.6875,-1.1875,1.0625,0
71550,2.3125,-1.375,0.625,0
71570,2.125,-1.4375,0.0625,0
71590,1.6875,-1.25,0.1875,0
71610,1.125,-1.1875,0.25,0
71630,0.9375,-1.1875,-0.25,0
71650,0.875,-1.25,0.3125,0
71670,0.125,-0.75,0.375,0
71690,-0.5,-0.6875,0.375,0
71710,-0.8125,-0.75,0.5625,0
71730,-0.4375,-0.75,1.25,0
71750,0.0625,-0.8125,1.3125,0
71770,-0.6875,-0.75,0.625,0
71790,-1.1875,-0.8125,-0.25,0
71810,-1.25,-0.75,0,0
71830,-1,-0.5625,0.75,0
71850,-0.5625,-0.6875,0.5,0
71870,0.25,-1.0625,0,0
71890,0.3125,-1.125,-0.5625,0
71910,0,-1.125,-0.625,0
71930,-0.0625,-1,-0.4375,0
71950,-0.5625,-0.75,-0.3125,0
71970,-0.8125,-0.9375,-0.0625,0
71990,-0.875,-0.6875,0.5625,0
72010,-1.125,-0.5625,0.875,0
72030,-1.6875,-0.625,0.375,0
72050,-1.6875,-0.5625,0.5,0
72070,-2,-0.375,0.875,0
72090,-2.375,-0.4375,0.5625,0
72110,-2.1875,-0.5,0.5,0
72130,-1.9375,-0.5,0.25,0
72150,-2.6875,-0.4375,0.0625,0
72170,-2.75,-0.375,0.0625,0
72190,-2.125,-0.375,0.0625,0
72210,-1.5625,-0.625,-0.0625,0
72230,-0.875,-0.8125,-0.125,0
72250,0,-1.0625,-0.0625,0
72270,0.4375,-1,-0.125,0
72290,0.1875,-1.125,-0.125,0
72310,-0.625,-1.0625,0,0
72330,-1.25,-0.875,0.0625,0
72350,-1.25,-1,0.125,0
72370,-0.625,-0.9375,0.25,0
72390,0.1875,-0.8125,0.1875,0
72410,-0.125,-1,0.375,0
72430,0.25,-1,0.5,0
72450,0.875,-1,1,0
72470,0.125,-0.8125,0.6875,0
72490,-1.125,-0.9375,-0.125,0
72510,-1.625,-1,-0.375,0
72530,-1.25,-0.6875,0.25,0
72550,-0.75,-0.75,0.75,0
72570,0.6875,-1.125,0.25,0
72590,1.4375,-1.5,-0.375,0
72610,1.125,-1.5,-0.75,0
72630,0.4375,-1.5625,-0.4375,0
72650,-0.1875,-1.125,-0.25,0
72670,-0.75,-1.0625,-0.0625,0
72690,-0.5625,-1,0.0625,0
72710,0.625,-1,0.75,0
72730,0.875,-0.9375,0.6875,0
72750,0.625,-1.25,0,0
72770,1,-1.375,0,0
72790,1.375,-1.4375,0.25,0
72810,1.3125,-1.25,0.125,0
72830,1,-1.25,-0.1875,0
72850,0.375,-1.1875,-0.125,0
72870,-0.125,-1.1875,0.0625,0
72890,-0.4375,-0.9375,0.125,0
72910,-0.5625,-1,0,0
72930,-0.25,-1.125,0,0
72950,-0.0625,-1.0625,0.0625,0
72970,-0.0625,-1.25,0,0
72990,-0.0625,-1.3125,-0.125,0
73010,0.4375,-1.25,-0.125,0
73030,0.1875,-1.25,-0.125,0
73050,-0.3125,-1.25,-0.125,0
73070,-0.9375,-1.3125,0.125,0
73090,-1.5625,-1.25,0.5625,0
73100,-1,-0.875,0.3125,0
73120,-0.875,-1.0625,0.375,0
73140,0,-1.125,0.125,0
73160,0.5625,-1.125,0.3125,0
73180,0.25,-0.875,0.1875,0
73200,-1.125,-1.125,-0.4375,0
73220,-1.75,-1.125,-0.5625,0
73240,-1.625,-0.625,0.125,0
73260,-1.4375,-0.625,0.5625,0
73280,-0.8125,-0.9375,0.3125,0
73300,-0.3125,-1.25,-0.125,0
73320,-0.125,-1.25,-0.25,0
73340,0.125,-0.9375,-0.1875,0
73360,-0.25,-0.8125,-0.3125,0
73380,-1.125,-0.8125,-0.1875,0
73400,-1.5,-0.75,0,0
73420,-0.875,-0.8125,0.4375,0
73440,-0.4375,-0.625,0.75,0
73460,0,-0.9375,0.3125,0
73480,-0.25,-1.1875,-0.125,0
73500,0.0625,-1.125,-0.25,0
73520,0.25,-1,-0.0625,0
73540,0.25,-1.0625,-0.1875,0
73560,-0.1875,-1.0625,-0.3125,0
73580,-0.6875,-1,-0.125,0
73600,-1.125,-0.9375,-0.125,0
73620,-1.1875,-0.875,0,0
73640,-1.125,-0.875,0.0625,0
73660,-0.875,-0.875,0.25,0
73680,-0.875,-0.875,0.1875,0
73700,-0.1875,-0.9375,0.125,0
73720,0.1875,-1.0625,0.25,0
73740,0.125,-1,0.1875,0
73760,-0.1875,-1.0625,0.0625,0
73780,-0.625,-1.0625,0.0625,0
73800,-0.625,-0.9375,0.125,0
73820,-0.8125,-1,0.1875,0
73840,-0.75,-0.9375,0.125,0
73860,-0.4375,-1.125,0.1875,0
73880,-0.5,-1.4375,0.5625,0
73900,0.4375,-1.3125,0.375,0
73920,1,-1.3125,0.3125,0
73940,0.375,-1.1875,0.3125,0
73960,-1.25,-1.3125,-0.625,0
73980,-1.5625,-1.375,-0.3125,0
73990,-0.8125,-1,0.5625,0
74010,-0.8125,-0.8125,0.75,0
74030,-0.125,-1.0625,0.5,0
74050,-0.125,-1.25,-0.1875,0
74070,-0.0625,-1.25,-0.25,0
74090,0.1875,-0.9375,-0.0625,0
74100,-0.625,-0.8125,-0.125,0
74120,-1.375,-0.75,0.25,0
74140,-1.5625,-0.875,0.3125,0
74160,-0.625,-0.8125,0.625,0
74180,0.375,-0.8125,0.875,0
74200,0.25,-1.125,0.125,0
74220,0,-1.375,-0.125,0
74240,-0.125,-1.125,0,0
74260,0.0625,-1.0625,-0.125,0
74280,0.4375,-1.0625,0.0625,0
74300,-0.1875,-1,-0.0625,0
74320,-1.0625,-1,0,0
74340,-1.5625,-0.75,0.0625,0
74360,-1.5,-0.6875,0.25,0
74380,-1.375,-0.75,0.25,0
74400,-1.5,-0.8125,0.3125,0
74420,-1.375,-0.75,0.25,0
74440,-1.0625,-0.8125,0.1875,0
74460,-0.625,-0.9375,0.125,0
74480,-0.125,-1,0.0625,0
74500,-0.125,-0.9375,0,0
74520,-0.4375,-0.9375,-0.1875,0
74540,-0.625,-1,-0.125,0
74560,-0.6875,-1,0.0625,0
74580,-0.75,-1,0,0
74600,-0.8125,-0.9375,-0.125,0
74620,-0.8125,-0.9375,-0.125,0
74640,-0.625,-0.875,-0.0625,0
74660,-0.9375,-1,0.3125,0
74680,0.0625,-1,0.4375,0
74700,0.125,-0.875,0.4375,0
74720,-0.8125,-0.75,0.3125,0
74740,-1.875,-1,-0.3125,0
74760,-1.8125,-0.875,-0.3125,0
74780,-1.0625,-0.6875,0.4375,0
74800,-1.5625,-0.5625,0.5,0
74820,-0.9375,-0.9375,0.25,0
74840,-0.75,-1.0625,-0.125,0
74860,-0.6875,-0.875,-0.25,0
74880,-0.8125,-0.6875,0,0
74900,-0.75,-0.6875,0.0625,0
74920,-1.3125,-0.8125,0.125,0
74940,-0.875,-0.8125,0.4375,0
74960,-0.3125,-0.75,0.8125,0
74980,0.25,-0.6875,1,0
75000,0.375,-1,0.1875,0
75020,0.6875,-1.0625,0.0625,0
75040,0.625,-1,0.125,0
75060,0.5625,-0.875,0.3125,0
75080,0.5,-0.875,0.3125,0
75100,0,-1,0.25,0
75120,-0.4375,-0.9375,0.1875,0
75140,-0.75,-0.75,0.0625,0
75160,-1.125,-0.75,0.125,0
75180,-1,-0.625,0.25,0
75200,-0.5625,-0.8125,0.5,0
75220,0.0625,-0.9375,0.75,0
75240,0.625,-0.9375,0.625,0
75260,1,-0.9375,0.5625,0
75280,0.75,-0.8125,0.5,0
75300,0.5625,-0.9375,0.5,0
75320,0.5625,-1.125,0.6875,0
75340,0.5,-1,0.8125,0
75360,0.6875,-0.875,0.4375,0
75380,0.875,-1.125,0.375,0
75400,0.75,-1.125,0.25,0
75420,0.75,-1.0625,0.1875,0
75440,0.625,-1.1875,0.25,0
75460,0.6875,-1,0.375,0
75480,0.1875,-1.1875,0.5,0
75500,0.6875,-1.1875,0.625,0
75520,1.3125,-1.125,0.75,0
75540,1.0625,-1,0.625,0
75560,0.125,-1.125,0,0
75580,0.25,-1.25,-0.25,0
75600,0.8125,-1.125,0.625,0
75620,0.625,-0.9375,0.9375,0
75640,1.25,-1.3125,0.375,0
75660,1.75,-1.5,-0.125,0
75680,1.75,-1.5,-0.125,0
75700,1.8125,-1.1875,0.0625,0
75720,1.1875,-1.0625,0.25,0
75740,-0.1875,-0.8125,0.3125,0
75760,-0.625,-1.0625,0.5,0
75780,0.0625,-0.9375,1,0
75800,0.125,-0.6875,1.0625,0
75820,-1,-1.4375,0.4375,0
75840,-5.25,-0.0625,2.5625,0
75860,-8.875,-1,6.8125,0
75880,-14.5,-3,9.9375,0
75900,-23.3125,-10.3125,10.0625,0
75920,-41.25,-16.625,12.75,0
75940,-66.625,-29.125,15.6875,0
75960,-55.125,-23.75,8.8125,0
75980,-37.0625,-12.875,-0.875,0
76000,-14.5625,-19.25,9.375,0
76010,-18.5,-34.6875,12.75,0
76030,-28.75,-45.75,8.8125,0
76050,-44.625,-54.9375,-7.25,0
76070,-40.5625,-66.625,-17.25,0
76090,-26,-76.9375,-16.375,0
76110,-15.3125,-87.8125,-19.6875,0
76130,-15.625,-94.3125,-23.4375,0
76150,-23.625,-98.625,-27,0
76170,-31.6875,-101.875,-28.625,0
76190,-40.5,-106.5,-23.625,0
76210,-38.0625,-103.75,-28.4375,0
76230,-35.8125,-102.375,-32,0
76260,-32.625,-102.312,-23.625,0
76280,-32.5625,-96.75,-25.0625,0
76300,-36.375,-90,-27.625,0
76320,-36.75,-86.0625,-22.5625,0
76340,-26.875,-78.625,-9.5,0
76360,-31.125,-68.6875,-1.8125,0
76380,-26.5625,-69.3125,-2.125,0
76400,-24.375,-60.375,-2.0625,0
76420,-22,-54,3.3125,0
76440,-15.0625,-51.6875,6.9375,0
76460,-12.75,-44.5,7.25,0
76480,-15.6875,-36.0625,4.375,0
76500,-17.5,-33.3125,4.9375,0
76520,-8.5,-30.6875,3.3125,0
76540,-4.6875,-26.6875,1,0
76560,-6.375,-22.6875,2.875,0
76580,-8.0625,-18.9375,0.8125,0
76600,-9.125,-16,-2.4375,0
76620,-10.0625,-16.6875,-1.6875,0
76640,-11.875,-17.25,-0.9375,0
76660,-9.25,-15,-0.5625,0
76680,-8,-13.0625,3.5,0
76700,-9.25,-11.875,6.5,0
76720,-18.625,-8.9375,5.125,0
76740,-16,-5.3125,2.75,0
76760,-11.0625,-2.0625,2.375,0
76780,-10.4375,-1.4375,0.4375,0
76800,-13.625,-1.75,-0.5,0
76820,-8.625,0.5625,-2.5,0
76840,-0.6875,1.875,-2.5,0
76860,3.1875,-0.9375,2.0625,0
76880,3,-2.3125,4.1875,0
76900,1.8125,0.375,1.0625,0
76920,-7.6875,3.625,-1.625,0
76940,-6.8125,5.1875,-1.875,0
76960,-1.125,6,0.75,0
76980,1.25,5.4375,0.5625,0
77000,-0.6875,3.9375,-1.6875,0
77020,-3,2.5625,-4.375,0
77040,0.25,1.0625,-4.0625,0
77060,4.625,-2.25,-0.9375,0
77080,5.8125,-5.375,0.125,0
77100,4,-5.125,-2.4375,0
77120,1.25,-3.1875,-3.125,0
77140,-1.9375,-3.5,0.375,0
77160,-2,-4.125,2.3125,0
77180,0.3125,-3.75,0.875,2000
77200,3.4375,-4.625,2.8125,0
77220,2.6875,-3.75,2.5,0
77240,-0.5,-3.375,0.9375,0
77260,0.0625,-3.4375,-1.625,0
77280,3.125,-3.625,-1.6875,0
77300,4.9375,-3.6875,0.1875,0
77320,5.5,-2,1.75,0
77340,5.125,-0.75,0.5,0
77360,2.1875,-3.0625,0.625,0
77380,-1.8125,-1.3125,2.25,0
77400,3,-1.75,1.6875,0
77420,6.5,-3.625,0.0625,0
77440,7,-3.3125,1.625,0
77460,6,-4.125,2.0625,0
77480,5.5,-4.125,0.3125,0
77500,2.625,-5.1875,0.0625,0
77520,3.9375,-5.25,1.3125,0
77540,6.375,-5.9375,3.375,0
77560,9.0625,-7.3125,3.75,0
77580,6.5,-9.375,2.4375,0
77600,6.6875,-9.1875,1.625,0
77620,9.5625,-9.375,1.1875,0
77640,8.8125,-10.25,2.625,0
77660,7.25,-10.5,5.625,0
77680,6.875,-11.6875,4.25,0
77700,4.625,-10.4375,0.5,0
77720,5,-9.3125,1.1875,0
77740,3.5625,-11.6875,2.8125,0
77760,5,-13.125,4.25,0
77780,4.875,-13,3.5625,0
77800,5.3125,-12.125,-0.375,0
77820,8,-10.5625,-1.9375,0
77840,11.875,-10,-2.125,0
77860,12.875,-8.5,-1.5,0
77880,10.9375,-7.75,-0.625,0
77900,11,-8.25,-3.3125,0
77920,12.1875,-7.5,-6.1875,0
77940,10.375,-5.375,-6.1875,0
77960,6.8125,-3.3125,-3.625,0
77980,4.8125,-3.75,-2.25,0
78000,4.5625,-2.8125,-3.375,0
78020,5.375,-1.5625,-4.3125,0
78040,2.25,-1.75,-4.3125,0
78060,2.4375,-1.8125,-4.4375,0
78080,4.5,-1.3125,-5.8125,0
78100,6.25,0.125,-7.75,0
78120,5.8125,-0.5625,-7.9375,0
78140,5.6875,-1.75,-7.8125,0
78160,6.4375,-3.5625,-9.1875,0
78180,5.75,-1.6875,-13.0625,0
78200,4.375,-1.5625,-11.125,0
78220,4.875,-3.5,-9.375,0
78240,6.3125,-1.875,-9.0625,0
78260,8.6875,-0.875,-10.8125,0
78280,10.25,-0.875,-12.375,0
78300,10.8125,-3.4375,-12.9375,0
78320,9.5,-3.375,-12.4375,0
78340,7.5,-1.375,-13,0
78360,7.8125,-1.0625,-13.5,0
78380,7,-3.3125,-13.0625,0
78400,8.5,-6.6875,-14.0625,0
78440,5.25,-4.8125,-16.875,0
78460,6.875,-6.75,-15.75,0
78480,7.75,-5.125,-15.3125,0
78500,5.375,-0.75,-15.125,0
78520,3.5625,-0.875,-12.5,0
78540,3.625,-3.125,-11.625,0
78560,3.9375,-1.5625,-12.5625,0
78580,0.8125,-0.5,-13.0625,0
78600,-0.375,-1.3125,-12.8125,0
78620,-1.9375,0.0625,-11.6875,0
78640,-2.125,1.25,-12.9375,0
78660,-0.25,2.4375,-14.5625,0
78680,0.1875,1.8125,-14.0625,0
78700,-1.5,1,-12.6875,0
78720,-0.875,3,-14.375,0
78740,1.375,3.5,-17.4375,0
78760,1.3125,4.6875,-17.375,0
78780,1.4375,3.3125,-17.8125,0
78800,0.9375,3.125,-17.875,0
78820,1.6875,2.3125,-18.1875,0
78840,1.5,1.6875,-20.4375,0
78860,-1.1875,3.5,-23.0625,0
78880,-1.0625,3.1875,-21.5625,0
78900,-1.0625,1.5,-20.125,0
78920,-1.125,0.25,-21.0625,0
78940,-1.8125,1.25,-22.625,0
78960,-1.3125,0.5,-22.75,0
78980,-3.375,0.1875,-22.125,0
79000,-6,1.5625,-23.125,0
79020,-6.9375,4,-22.6875,0
79040,-6.8125,4.6875,-21.5,0
79060,-6.3125,6.125,-19.9375,0
79080,-7.125,8,-17.875,0
79100,-6.875,9.875,-17.75,0
79120,-6.5625,10.75,-17.0625,0
79140,-7.375,10.5,-16.0625,0
79160,-6.6875,10.5625,-16.1875,0
79180,-5.75,9.625,-17.1875,0
79200,-5.3125,10.0625,-17.625,0
79220,-4.6875,10.4375,-17.4375,0
79240,-3.9375,8.375,-17.125,0
79260,-4,7.5,-18,0
79280,-3.6875,7.6875,-20.625,0
79290,-3.4375,8.0625,-22.3125,0
79310,-4.1875,8.6875,-23.0625,0
79330,-4.4375,8.625,-23,0
79350,-3.25,8.875,-22.25,0
79370,-2.75,8.3125,-24.375,0
79390,-3.375,7.75,-27.625,0
79410,-5.25,8.6875,-28.5625,0
79430,-5.9375,8.5625,-30.8125,0
79450,-6,8.125,-32.3125,0
79470,-6.25,7.6875,-33.1875,0
79490,-5.5625,7.875,-33.4375,0
79510,-7.3125,7.625,-34,0
79530,-7.25,6.6875,-33,0
79550,-6.375,7.125,-32.625,0
79570,-4.9375,8.625,-32,0
79590,-5.125,7.875,-30.3125,0
79610,-6.4375,6.875,-29.1875,0
79630,-6,7.75,-28.375,0
79650,-5.125,6.4375,-26.25,0
79660,-5.0625,4.9375,-24.6875,0
79680,-5.1875,4.3125,-24,0
79700,-7,4.25,-22.125,0
79720,-7.0625,3.375,-20,0
79740,-5.5625,3.1875,-20.625,0
79760,-4.1875,3,-23.6875,0
79780,-3.875,1.5,-23.1875,0
79800,-4.6875,0.1875,-21.6875,0
79820,-4.5625,-0.3125,-23,0
79840,-3.8125,-2.5625,-24.8125,0
79880,-6,-1.75,-23.5625,0
79900,-7.625,-1.5625,-21.9375,0
79920,-6.875,-1.625,-22.1875,0
79940,-6.5625,-0.25,-22.4375,0
79960,-8.5625,-0.8125,-20.75,0
79980,-11.1875,1.125,-19.5,0
80000,-11.375,2.5625,-17.1875,0
80020,-11.0625,2.0625,-14.125,0
80040,-11.1875,2.75,-12.75,0
80060,-10.8125,4.125,-15.1875,0
80080,-8.3125,3.0625,-17.5625,0
80100,-6.875,4.1875,-11.4375,0
80120,-13.4375,-3.125,0.1875,0
80140,-10.4375,-7.25,1.4375,0
80160,-7.125,-6.0625,-2.625,0
80180,-4.9375,-2.25,-2,0
80200,-4.1875,1.6875,0,0
80220,-5.5625,1.625,1.375,0
80240,-4.3125,0.25,1.0625,0
80260,-1.125,0.8125,-0.0625,0
80280,0.6875,5.375,-4.0625,0
80300,0.5,7.0625,-6.125,0
80320,-0.8125,1.9375,-4.75,0
80340,-3.125,-1.5625,-2.375,0
80360,-5.5625,0.0625,-3.125,0
80380,-2.625,4.75,-5.75,0
80400,-2.5,5.875,-4.8125,0
80420,-5.6875,1.5,-1.9375,0
80440,-8.125,0.8125,0.375,0
80460,-10.0625,4.875,-0.5,0
80480,-6.0625,7.75,-1.8125,0
80500,-6.9375,4.625,-1.625,0
80520,-7.9375,2.125,2.25,0
80540,-9.6875,3.875,7.0625,0
80560,-12.1875,5.25,4.8125,0
80580,-11.3125,3.875,1.5625,0
80600,-7.3125,1.25,3.125,0
80620,-7,2.375,5.6875,0
80640,-4.375,3.5625,5.125,0
80660,-2.25,5,5,0
80680,0.5625,3.3125,6.4375,0
80700,-2.125,1.375,8.875,0
80720,-5.0625,2.125,9.6875,0
80740,-5.5625,4.0625,8.625,0
80760,-7.4375,2.125,7.75,0
80780,-5.1875,-0.4375,8.4375,0
80800,-5.375,-0.75,10.5,0
80820,-5.875,0.375,10.75,0
80840,-8.1875,0.5,9.5,0
80860,-8.8125,-2.0625,10.375,0
80880,-6.5,-3.5,13.375,0
80900,-6.1875,-4.0625,15.875,0
80920,-6.625,-3.6875,17.375,0
80940,-8.375,-3.75,16.4375,0
80960,-11.375,-3.375,14.625,0
80980,-7.75,-2.8125,15.6875,0
81000,-7.25,-2.875,17.875,0
81020,-9.0625,-3.8125,16.5625,0
81040,-8.25,-5.25,13.5,0
81060,-6.8125,-5.3125,11.0625,0
81080,-5.6875,-5.5,11.3125,0
81100,-5.75,-6.3125,13.875,0
81120,-6.875,-6.375,13.8125,0
81140,-10.9375,-5.375,12.4375,0
81160,-13.625,-4.625,11.5625,0
81170,-10.6875,-6.375,14,0
81190,-7.125,-6.1875,15.25,0
81210,-6.75,-5.3125,15.375,0
81230,-10.125,-5.6875,15.75,0
81250,-11.125,-6.0625,15.0625,0
81270,-7.6875,-4,13.875,0
81290,-7.3125,-5.25,14.4375,0
81310,-5.625,-6.75,15.4375,0
81330,-6,-7.125,14.3125,0
81350,-4.1875,-7.5625,14.4375,0
81370,-1.625,-8.3125,14.1875,0
81390,-1.625,-8.8125,13.3125,0
81410,-1.625,-9.0625,13.125,0
81430,2.1875,-10.125,13.6875,0
81450,0.9375,-11.9375,14.375,0
81470,0.3125,-12.1875,13.25,0
81490,0.75,-10.4375,12.375,0
81510,1.125,-11.375,14.6875,0
81530,-0.6875,-12.9375,16.4375,0
81550,1.6875,-11.9375,16.0625,0
81570,1.5,-11.5625,16.6875,0
81590,-2.625,-12,18.4375,0
81610,-3.4375,-12.375,17.5,0
81630,-2.9375,-13.0625,17.5,0
81650,-1.75,-12.5625,18.5,0
81670,-2.25,-12.6875,19.0625,0
81690,-5.375,-13.875,18.8125,0
81710,-5.1875,-13.3125,18.625,0
81730,-1.6875,-11.75,16.75,0
81750,-0.8125,-12,16.5,0
81770,-0.125,-11.875,17.625,0
81790,1.125,-10.125,16.3125,0
81810,0,-9.5,16.4375,0
81830,-1.0625,-10.1875,16.5625,0
81850,-0.0625,-9.375,15.375,0
81870,-1.1875,-8.875,15.5,0
81890,-1.0625,-9.0625,17.6875,0
81910,-4,-9.0625,17.5625,0
81930,-2.75,-8.375,16.6875,0
81950,-1.0625,-10.375,15.6875,0
81970,1.5625,-10.375,15.6875,0
81990,0.75,-11.3125,15.0625,0
82010,-1.4375,-13.3125,14.625,0
82030,-0.125,-11.9375,13.8125,0
82050,0.5625,-11.875,13.6875,0
82070,1,-13.375,15.25,0
82090,-1.0625,-11.9375,16.625,0
82110,-2.8125,-11.4375,14.125,0
82130,-1.3125,-11,12.75,0
82150,0.25,-11.1875,12.875,0
82170,0.9375,-13,13.9375,0
82190,0.4375,-15.125,15.75,0
82210,1.75,-14.3125,14.75,0
82230,1.3125,-13.75,14.75,0
82250,-1.125,-15.3125,15.8125,0
82270,-0.3125,-17.875,16.375,0
82290,0.25,-19.1875,16.625,0
82310,1.375,-19.6875,15.0625,0
82330,0.25,-20.6875,15.6875,0
82350,-1.3125,-21.5625,16.4375,0
82370,-0.8125,-23.375,16.4375,0
82390,1.3125,-25.5,14,0
82410,3.3125,-25.875,11.9375,0
82430,3.5625,-26.0625,12.375,0
82450,4.9375,-26.4375,12.875,0
82470,6.8125,-25.875,10.6875,0
82490,5.875,-24.6875,9.0625,0
82510,9.375,-23.4375,9.1875,0
82530,10.875,-22.875,7.9375,0
82550,11.4375,-23.25,7.625,0
82570,6,-22.5625,9.125,0
82590,4.125,-20.625,7.625,0
82610,6.5625,-19,4.5625,0
82630,3.5,-19.5625,5.5,0
82650,3.4375,-20.5,5.625,0
82670,6.625,-20.625,3.25,0
82690,8.5625,-21.125,1.0625,0
82710,6.8125,-21.0625,2.6875,0
82730,5.375,-20.125,4.8125,0
82750,5.625,-19.75,3.875,0
82770,4.9375,-18.75,3.6875,0
82790,0.8125,-18.6875,5.625,0
82810,0.5625,-18.1875,5.5625,0
82830,6.0625,-16.6875,2.0625,0
82850,11.5625,-14.625,-0.1875,0
82870,9.25,-15.1875,0.25,0
82890,9.5625,-14.6875,-1.6875,0
82920,7.5625,-16.5,-5,0
82940,4.5,-16.6875,-3,0
82970,4.375,-14.1875,-6.875,0
82990,4.8125,-15.625,-2.625,0
83010,4.0625,-18.875,1.9375,0
83030,2.125,-18.25,0.25,0
83050,-2.75,-14.6875,-0.1875,0
83070,-4.3125,-14.8125,1.625,0
83090,-3.8125,-16.25,3.125,0
83110,-0.5625,-16.4375,0.6875,0
83130,-0.3125,-19.5625,-2,0
83150,1.375,-16.625,-2,0
83170,3.6875,-17.1875,-2.75,0
83190,3.5,-15.625,-6.75,0
83210,-0.125,-17.5,-5.3125,0
83230,0.875,-16.5,-5.5,0
83250,1.375,-14.3125,-5.4375,0
83270,1.875,-10.9375,-4.375,0
83290,2.9375,-8.4375,-2.75,0
83310,4.3125,-11.4375,-2.1875,0
83330,3.5,-11.1875,-4.3125,0
83350,3.625,-8.5625,-6,0
83370,1.8125,-7.5,-7.6875,0
83390,2.9375,-5.9375,-6.8125,0
83410,5.375,-3.5625,-3.0625,0
83430,2.8125,-4.125,-0.5625,0
83450,1.0625,-2.9375,-3.8125,0
83470,2.5625,-0.5625,-6.75,0
83490,6.375,2.625,-8.5,0
83510,4.375,3.5,-6.6875,0
83530,2.625,3.9375,-6.8125,0
83550,5.25,5.25,-9.6875,0
83570,9.3125,8.9375,-13.9375,0
83590,6.875,8.5,-13.9375,0
83610,2,7.3125,-14.9375,0
83630,2.875,7.5,-14.9375,0
83650,4.375,7.6875,-16.8125,0
83670,2.5625,8.6875,-16.9375,0
83690,-1.625,9,-15.875,0
83710,-3.375,8.125,-16.375,0
83730,-0.375,7.75,-18.25,0
83750,-1.3125,4.4375,-18.5625,0
83770,-1.375,2.5625,-19.125,0
83790,-2.75,1.75,-19,0
83810,-4.1875,0.5,-17.375,0
83830,-5.75,-2.25,-15.75,0
83850,-5.125,-0.6875,-16.625,0
83870,-3.8125,0.6875,-17.5625,0
83890,-0.8125,-0.6875,-15.375,0
83910,-6.0625,-3.3125,-11.5625,0
83930,-7.0625,-3.5625,-12.5,0
83950,-4.5625,-0.5625,-16.875,0
83970,-3.875,-0.375,-19.25,0
83990,-2.375,0.5625,-18.25,0
84010,-3.4375,1.625,-19.0625,0
84030,-4.75,2.8125,-20.375,0
84050,-5.5625,3.875,-20.0625,0
84070,-4.625,3.875,-21.375,0
84090,-6.5,4.8125,-22.25,0
84110,-9.375,4.8125,-20.6875,0
84130,-9.4375,6.6875,-19.8125,0
84150,-8.8125,6.75,-17.9375,0
84170,-10.375,6.75,-16.25,0
84190,-10.375,6.6875,-16.375,0
84210,-9.4375,9,-16.1875,0
84230,-9.9375,9.1875,-13.0625,0
84250,-8.25,9.125,-15.1875,0
84270,-5.3125,8.875,-18.4375,0
84290,-5.875,8.6875,-18.875,0
84310,-6.5625,8.375,-18.0625,0
84330,-7.125,7.25,-18.875,0
84350,-5.3125,7.375,-20.6875,0
84370,-5.6875,7.0625,-21,0
84390,-7.5,6.5625,-20.5,0
84410,-7.625,4.9375,-20.625,0
84430,-6.5,5.0625,-21.875,0
84450,-8.0625,3.875,-20.75,0
84470,-8.1875,4.5,-20.25,0
84480,-7.6875,5.75,-19.125,0
84500,-7.125,4.875,-18,0
84520,-7.625,3.875,-16.3125,0
