Timestamp, Angle x, Angle y, Angle z, Marker
50,-0.455264,0.502587,1.37859,0
70,-0.455133,0.502273,1.37841,0
90,-0.454698,0.501749,1.37846,0
110,-0.454275,0.501404,1.3785,0
130,-0.453645,0.501111,1.37874,0
150,-0.453049,0.500714,1.37896,0
160,-0.452184,0.500645,1.37936,0
160,-0.451806,0.500645,1.37974,0
200,-0.451302,0.500555,1.38012,0
220,-0.450855,0.500493,1.38017,0
240,-0.449957,0.500258,1.38023,0
260,-0.449324,0.499741,1.38028,0
280,-0.4486,0.499299,1.3807,0
300,-0.447932,0.498999,1.38092,0
320,-0.447544,0.498819,1.38131,0
340,-0.447404,0.498327,1.38115,0
360,-0.447553,0.498134,1.38114,0
380,-0.447553,0.498134,1.38114,0
400,-0.447679,0.498224,1.38113,0
420,-0.447901,0.498316,1.38164,0
440,-0.448117,0.498454,1.38233,0
460,-0.447658,0.498707,1.38305,0
480,-0.447199,0.498847,1.38363,0
500,-0.446472,0.499045,1.38403,0
520,-0.446422,0.498859,1.38402,0
540,-0.447113,0.498878,1.38379,0
560,-0.447885,0.499024,1.38374,0
580,-0.44865,0.499215,1.38388,0
600,-0.449096,0.499278,1.38383,0
620,-0.449732,0.499155,1.38379,0
640,-0.45062,0.498944,1.38338,0
660,-0.451217,0.4987,1.38318,0
680,-0.451648,0.498361,1.38296,0
700,-0.452209,0.498334,1.38293,0
720,-0.453131,0.498289,1.38287,0
740,-0.453693,0.498263,1.38284,0
760,-0.453693,0.498263,1.38284,0
780,-0.453818,0.498352,1.38283,0
800,-0.453778,0.498346,1.38282,0
820,-0.453778,0.498346,1.38282,0
840,-0.454144,0.49855,1.38297,0
860,-0.45471,0.498748,1.38312,0
880,-0.455311,0.498844,1.38324,0
900,-0.456085,0.498992,1.38319,0
920,-0.457104,0.49921,1.3831,0
940,-0.45849,0.499518,1.38302,0
960,-0.459505,0.499781,1.38312,0
980,-0.460515,0.499821,1.38305,0
1000,-0.461697,0.499911,1.38279,0
1020,-0.462995,0.499912,1.38255,0
1040,-0.464223,0.499963,1.38212,0
1060,-0.465561,0.499816,1.38167,0
1080,-0.466688,0.499766,1.38161,0
1100,-0.46774,0.499813,1.38155,0
1120,-0.46867,0.499724,1.38131,0
1140,-0.46932,0.499666,1.38112,0
1160,-0.469571,0.499304,1.38037,0
1180,-0.469445,0.499096,1.38023,0
1200,-0.468956,0.499025,1.38025,0
1220,-0.468422,0.498994,1.38046,0
1240,-0.466958,0.498798,1.38145,0
1260,-0.464914,0.498863,1.38228,0
1280,-0.462809,0.498561,1.38313,0
1300,-0.461078,0.498034,1.38342,0
1320,-0.45968,0.497546,1.38351,0
1340,-0.458896,0.497219,1.38358,0
1360,-0.458067,0.49693,1.38382,0
1380,-0.457158,0.496513,1.38388,0
1400,-0.456495,0.496051,1.38377,0
1420,-0.455858,0.495309,1.38365,0
1440,-0.455386,0.494778,1.38368,0
1460,-0.4554,0.494317,1.38369,0
1480,-0.455951,0.494112,1.38367,0
1500,-0.456622,0.493888,1.38362,0
1520,-0.457207,0.49385,1.38395,0
1540,-0.457357,0.494043,1.38446,0
1560,-0.457176,0.494197,1.38517,0
1580,-0.457195,0.494345,1.38588,0
1600,-0.457058,0.494729,1.38678,0
1620,-0.457213,0.494878,1.3871,0
1640,-0.457408,0.495033,1.38743,0
1660,-0.457644,0.495194,1.38778,0
1680,-0.457729,0.495278,1.38776,0
1700,-0.457895,0.495105,1.3874,0
1720,-0.45802,0.495194,1.3874,0
1740,-0.45802,0.495194,1.3874,0
1760,-0.458146,0.495284,1.3874,0
1780,-0.458266,0.495535,1.38774,0
1800,-0.458054,0.495747,1.38827,0
1820,-0.458008,0.496171,1.38897,0
1830,-0.457942,0.496832,1.38948,0
1850,-0.458473,0.497252,1.38979,0
1870,-0.459326,0.497531,1.38992,0
1890,-0.459211,0.497621,1.38991,0
1910,-0.459336,0.497711,1.38991,0
1930,-0.459336,0.497711,1.38991,0
1950,-0.459788,0.498002,1.39004,0
1970,-0.460727,0.498366,1.39016,0
1990,-0.46146,0.498781,1.39047,0
2010,-0.461661,0.499163,1.39098,0
2030,-0.461534,0.49946,1.3915,0
2050,-0.461584,0.499646,1.39151,0
2070,-0.461584,0.499646,1.39151,0
2090,-0.461584,0.499646,1.39151,0
2110,-0.461594,0.499826,1.39149,0
2130,-0.461281,0.49955,1.39188,0
2150,-0.4604,0.499459,1.39264,0
2170,-0.459795,0.499745,1.39303,0
2190,-0.460077,0.499599,1.39283,0
2210,-0.46047,0.499408,1.39283,0
2230,-0.460601,0.499453,1.39263,0
2250,-0.460561,0.499447,1.39262,0
2270,-0.461184,0.499791,1.39258,0
2290,-0.461862,0.500067,1.39308,0
2310,-0.462115,0.5005,1.39429,0
2330,-0.462217,0.501125,1.3955,0
2350,-0.462637,0.501656,1.39673,0
2370,-0.463711,0.502207,1.39771,0
2390,-0.465103,0.503262,1.39849,0
2410,-0.46599,0.50397,1.39844,0
2430,-0.466215,0.503545,1.39736,0
2450,-0.466304,0.502849,1.39629,0
2470,-0.46676,0.502364,1.39539,0
2490,-0.466962,0.502359,1.39538,0
2510,-0.467793,0.502177,1.39551,0
2530,-0.468568,0.502245,1.39635,0
2550,-0.469167,0.502787,1.3972,0
2570,-0.469661,0.50348,1.39788,0
2590,-0.469866,0.503821,1.3982,0
2610,-0.470159,0.504127,1.39837,0
2630,-0.470574,0.504026,1.39797,0
2650,-0.471282,0.504112,1.39758,0
2670,-0.471788,0.503931,1.39683,0
2690,-0.472067,0.503439,1.3963,0
2710,-0.472679,0.502987,1.39557,0
2730,-0.473487,0.502424,1.3948,0
2750,-0.474112,0.501902,1.3946,0
2770,-0.474449,0.501692,1.39495,0
2790,-0.474399,0.501778,1.39532,0
2810,-0.474019,0.501507,1.39533,0
2830,-0.473893,0.501297,1.39518,0
2850,-0.473847,0.501337,1.39536,0
2870,-0.473686,0.501347,1.39538,0
2890,-0.47306,0.501001,1.39542,0
2910,-0.471898,0.50062,1.39566,0
2930,-0.471111,0.500285,1.39572,0
2950,-0.470198,0.499859,1.39578,0
2970,-0.46932,0.499604,1.39619,0
2990,-0.468579,0.499619,1.3966,0
3010,-0.468126,0.499714,1.39698,0
3030,-0.467949,0.499709,1.39735,0
3050,-0.467168,0.499719,1.39774,0
3070,-0.466911,0.499583,1.39793,0
3090,-0.466564,0.499137,1.39797,0
3110,-0.465814,0.498972,1.39838,0
3130,-0.465141,0.49844,1.39842,0
3150,-0.464588,0.498045,1.39865,0
3170,-0.464516,0.497274,1.39849,0
3190,-0.464532,0.496813,1.3985,0
3210,-0.464658,0.496903,1.3985,0
3230,-0.464663,0.496858,1.3983,0
3250,-0.464341,0.496879,1.39834,0
3270,-0.46413,0.496704,1.39836,0
3290,-0.463875,0.496298,1.39818,0
3310,-0.463735,0.496073,1.39839,0
3330,-0.463936,0.496068,1.39839,0
3350,-0.463972,0.495968,1.39837,0
3370,-0.463948,0.495772,1.39874,0
3390,-0.464211,0.495656,1.39908,0
3410,-0.464197,0.49564,1.39944,0
3430,-0.464088,0.495359,1.39982,0
3450,-0.464146,0.495023,1.39999,0
3470,-0.464271,0.495113,1.39999,0
3490,-0.464271,0.495113,1.39999,0
3510,-0.464356,0.495198,1.39998,0
3530,-0.464356,0.495198,1.39998,0
3550,-0.46428,0.495293,1.39998,0
3570,-0.46428,0.495293,1.39998,0
3590,-0.465045,0.495269,1.39995,0
3610,-0.465689,0.495499,1.40025,0
3630,-0.466463,0.496045,1.40073,0
3650,-0.467559,0.496452,1.40102,0
3670,-0.468859,0.496585,1.40094,0
3690,-0.470566,0.496663,1.40065,0
3710,-0.472023,0.496712,1.4006,0
3730,-0.473359,0.496746,1.4005,0
3750,-0.474716,0.497291,1.4006,0
3770,-0.476225,0.497648,1.40069,0
3790,-0.477948,0.498181,1.40077,0
3810,-0.47947,0.499114,1.40138,0
3830,-0.481449,0.500349,1.40213,0
3850,-0.484065,0.501692,1.4034,0
3870,-0.486782,0.502836,1.40502,0
3890,-0.490031,0.503375,1.40682,0
3910,-0.491478,0.503297,1.4082,0
3930,-0.491418,0.50293,1.40821,0
3950,-0.489857,0.502431,1.40794,0
3970,-0.4884,0.501461,1.40643,0
3990,-0.48791,0.499971,1.40433,0
4010,-0.48851,0.498494,1.40238,0
4030,-0.489592,0.497312,1.40096,0
4050,-0.490098,0.496487,1.40024,0
4070,-0.490494,0.496422,1.4004,0
4090,-0.490804,0.496839,1.40144,0
4110,-0.491603,0.497382,1.40266,0
4130,-0.492612,0.49783,1.40348,0
4150,-0.493686,0.498474,1.40395,0
4170,-0.494761,0.499119,1.40443,0
4190,-0.494978,0.499696,1.40493,0
4210,-0.494375,0.499934,1.40512,0
4230,-0.49344,0.49996,1.40515,0
4250,-0.49241,0.499718,1.40522,0
4270,-0.492334,0.499812,1.40522,0
4290,-0.493393,0.499603,1.40481,0
4310,-0.494378,0.499762,1.40477,0
4330,-0.494906,0.499744,1.40474,0
4350,-0.494957,0.499929,1.40474,0
4370,-0.495085,0.50002,1.40474,0
4390,-0.495275,0.499561,1.40438,0
4400,-0.495406,0.499605,1.40418,0
4420,-0.495185,0.499646,1.40474,0
4440,-0.49492,0.49973,1.40547,0
4460,-0.494614,0.499809,1.40619,0
4480,-0.494359,0.500074,1.40691,0
4500,-0.494145,0.500343,1.40765,0
4520,-0.494068,0.500437,1.40765,0
4540,-0.493706,0.500401,1.40747,0
4560,-0.493172,0.500191,1.40732,0
4580,-0.492583,0.499843,1.40737,0
4600,-0.491919,0.499714,1.40757,0
4620,-0.491919,0.499714,1.40757,0
4640,-0.49256,0.499653,1.40775,0
4660,-0.492795,0.499723,1.40808,0
4680,-0.493119,0.500029,1.40861,0
4700,-0.492906,0.499977,1.40878,0
4720,-0.492613,0.49994,1.40899,0
4740,-0.491989,0.499815,1.4092,0
4760,-0.492116,0.499906,1.4092,0
4780,-0.492243,0.500122,1.40935,0
4800,-0.492854,0.500238,1.4095,0
4820,-0.492981,0.500329,1.4095,0
4840,-0.492701,0.500426,1.4095,0
4860,-0.490854,0.500241,1.40977,0
4880,-0.487749,0.499671,1.41067,0
4900,-0.483382,0.499207,1.41197,0
4920,-0.478988,0.498919,1.41325,0
4940,-0.473765,0.498372,1.41495,0
4960,-0.467844,0.497656,1.4171,0
4980,-0.461564,0.496618,1.41906,0
5000,-0.455206,0.495926,1.42178,0
5020,-0.450355,0.495938,1.42493,0
5040,-0.44634,0.496832,1.42803,0
5060,-0.444012,0.498024,1.4314,0
5080,-0.441332,0.500464,1.43768,0
5100,-0.43255,0.501001,1.44349,0
5120,-0.425064,0.501247,1.44671,0
5140,-0.419025,0.50149,1.45003,0
5160,-0.413387,0.501658,1.45352,0
5180,-0.408473,0.501095,1.45568,0
5200,-0.40371,0.500846,1.45712,0
5220,-0.399331,0.500569,1.45799,0
5240,-0.396222,0.500349,1.45914,0
5260,-0.395582,0.500141,1.46045,0
5280,-0.395169,0.500142,1.46338,0
5300,-0.383399,0.49851,1.46573,0
5320,-0.372994,0.498212,1.46589,0
5340,-0.366771,0.498868,1.46684,0
5360,-0.355955,0.499251,1.46716,0
5380,-0.344928,0.501851,1.46427,0
5400,-0.340864,0.505737,1.45993,0
5420,-0.340692,0.507229,1.45611,0
5440,-0.340473,0.506042,1.45143,0
5460,-0.337993,0.501731,1.44683,0
5480,-0.337923,0.495595,1.44295,0
5500,-0.348279,0.488426,1.44205,0
5520,-0.361863,0.479398,1.44772,0
5540,-0.377496,0.461174,1.45742,0
5560,-0.404492,0.433367,1.45443,0
5580,-0.432718,0.407545,1.4536,0
5600,-0.451356,0.379738,1.45729,0
5620,-0.456804,0.345998,1.46084,0
5640,-0.454199,0.310477,1.46626,0
5660,-0.453944,0.27551,1.47294,0
5680,-0.460007,0.239382,1.47842,0
5700,-0.473251,0.202153,1.48366,0
5720,-0.487066,0.164644,1.48975,0
5740,-0.499497,0.128017,1.49618,0
5760,-0.509817,0.0921151,1.50283,0
5780,-0.518539,0.0604567,1.50895,0
5800,-0.526318,0.0301644,1.5144,0
5820,-0.534643,0.00269285,1.51973,0
5840,-0.544639,-0.0227795,1.5245,0
5860,-0.554663,-0.0467349,1.52767,0
5880,-0.568122,-0.0694049,1.53082,0
5900,-0.581893,-0.0883946,1.53469,0
5930,-0.609355,-0.112932,1.54235,0
5950,-0.623371,-0.118321,1.54569,0
5970,-0.660874,-0.100027,1.57372,0
5990,-0.676396,-0.0864131,1.58843,0
6010,-0.694422,-0.0748481,1.60043,0
6030,-0.708443,-0.0636126,1.60983,0
6050,-0.718636,-0.0562496,1.61704,0
6070,-0.725324,-0.0537612,1.62132,0
6090,-0.727727,-0.0544828,1.62299,0
6110,-0.726856,-0.058556,1.62237,0
6130,-0.724852,-0.066319,1.61871,0
6150,-0.721752,-0.0768552,1.61314,0
6170,-0.717016,-0.08883,1.60588,0
6190,-0.711318,-0.10159,1.59661,0
6210,-0.706071,-0.114186,1.58665,0
6230,-0.701531,-0.127059,1.57638,0
6250,-0.697016,-0.139189,1.56503,0
6270,-0.691287,-0.150757,1.55217,0
6290,-0.683311,-0.16163,1.53894,0
6310,-0.674639,-0.171812,1.52549,0
6330,-0.666156,-0.179945,1.5117,0
6350,-0.659001,-0.185824,1.49817,0
6370,-0.653116,-0.190106,1.48495,0
6390,-0.647534,-0.193584,1.47176,0
6410,-0.642076,-0.19504,1.45809,0
6430,-0.636474,-0.195501,1.44406,0
6450,-0.630561,-0.194058,1.43076,0
6470,-0.624517,-0.190835,1.4188,0
6490,-0.618587,-0.18714,1.40746,0
6510,-0.614225,-0.182925,1.39739,0
6530,-0.611525,-0.178519,1.38806,0
6550,-0.610415,-0.172735,1.37944,0
6570,-0.609093,-0.165792,1.37134,0
6590,-0.605943,-0.157831,1.36394,0
6610,-0.601771,-0.148877,1.35818,0
6630,-0.599463,-0.139535,1.35343,0
6650,-0.597616,-0.13004,1.34882,0
6670,-0.594357,-0.120401,1.34396,0
6690,-0.590142,-0.111186,1.34049,0
6710,-0.58606,-0.102629,1.33832,0
6730,-0.58198,-0.0950471,1.33783,0
6750,-0.578122,-0.088707,1.3398,0
6770,-0.57568,-0.0844879,1.34258,0
6790,-0.573232,-0.0820841,1.34596,0
6810,-0.570253,-0.0812416,1.35052,0
6830,-0.568146,-0.0800964,1.35686,0
6850,-0.56905,-0.0780744,1.36441,0
6870,-0.571781,-0.0765203,1.37068,0
6890,-0.574893,-0.0755695,1.37531,0
6900,-0.577903,-0.074721,1.37866,0
6920,-0.580328,-0.0730645,1.37994,0
6940,-0.582308,-0.0697553,1.3804,0
6960,-0.584599,-0.065336,1.38059,0
6980,-0.587596,-0.0610219,1.38002,0
7000,-0.592889,-0.0567048,1.37943,0
7020,-0.598329,-0.051413,1.38102,0
7040,-0.604792,-0.0460655,1.38404,0
7060,-0.612263,-0.041149,1.38634,0
7080,-0.619858,-0.0364066,1.3879,0
7100,-0.626386,-0.0316746,1.38617,0
7120,-0.633355,-0.028078,1.38146,0
7140,-0.639798,-0.0253084,1.37421,0
7160,-0.643069,-0.021966,1.3644,0
7180,-0.64229,-0.0198602,1.35291,0
7200,-0.639233,-0.019766,1.34022,0
7220,-0.632535,-0.0205739,1.32565,0
7240,-0.622474,-0.0222709,1.30999,0
7260,-0.613283,-0.0255179,1.29506,0
7280,-0.606918,-0.0300752,1.28138,0
7300,-0.600366,-0.0336181,1.26981,0
7320,-0.594179,-0.037372,1.25958,0
7340,-0.587865,-0.0420931,1.24967,0
7360,-0.581161,-0.0466203,1.24123,0
7380,-0.575097,-0.050187,1.23501,0
7400,-0.570396,-0.0522779,1.22975,0
7420,-0.566663,-0.0524703,1.22709,0
7440,-0.565018,-0.0520693,1.22721,0
7460,-0.563546,-0.0514577,1.22808,0
7480,-0.56263,-0.0481445,1.22826,0
7500,-0.561279,-0.0424356,1.22854,0
7520,-0.558389,-0.0358218,1.22824,0
7540,-0.55422,-0.0287898,1.22695,0
7560,-0.550633,-0.0215821,1.22672,0
7580,-0.549594,-0.0178107,1.23006,0
7600,-0.550974,-0.0155793,1.23685,0
7620,-0.552883,-0.0118443,1.24536,0
7640,-0.554496,-0.00771606,1.25311,0
7660,-0.555518,-0.00145772,1.25874,0
7680,-0.555967,0.00666754,1.26297,0
7700,-0.55653,0.0160676,1.26469,0
7720,-0.556995,0.0229621,1.26302,0
7740,-0.555859,0.0247606,1.26072,0
7760,-0.550801,0.0232233,1.25732,0
7780,-0.540817,0.0196838,1.25245,0
7800,-0.525288,0.0158204,1.2457,0
7820,-0.507274,0.0131236,1.2369,0
7840,-0.490239,0.0107597,1.22619,0
7860,-0.476481,0.00969893,1.21386,0
7880,-0.469161,0.0132817,1.20174,0
7900,-0.471255,0.0207084,1.19289,0
7920,-0.476061,0.0292688,1.18857,0
7940,-0.485189,0.0367852,1.18375,0
7960,-0.495019,0.0437871,1.18006,0
7980,-0.504411,0.0488239,1.17978,0
8000,-0.507401,0.0538988,1.18265,0
8020,-0.507603,0.0623815,1.18937,0
8040,-0.510444,0.0701491,1.1965,0
8060,-0.51344,0.0747629,1.20167,0
8080,-0.512406,0.0771532,1.20467,0
8100,-0.507392,0.077055,1.20476,0
8120,-0.497995,0.0744825,1.20205,0
8140,-0.484812,0.0711387,1.19686,0
8160,-0.469348,0.0668919,1.18996,0
8180,-0.451357,0.0612972,1.18158,0
8200,-0.432057,0.0557006,1.17119,0
8220,-0.419874,0.0521134,1.15848,0
8240,-0.416623,0.0519749,1.14751,0
8260,-0.428539,0.0538695,1.14221,0
8280,-0.447601,0.0564774,1.14196,0
8300,-0.465699,0.061532,1.14259,0
8320,-0.482209,0.0702139,1.14964,0
8340,-0.498873,0.0825522,1.16392,0
8360,-0.518393,0.0946256,1.18137,0
8380,-0.536485,0.100675,1.19359,0
8400,-0.547172,0.100725,1.20144,0
8420,-0.547301,0.0972048,1.2084,0
8440,-0.541987,0.0901413,1.21342,0
8460,-0.536566,0.0813494,1.21776,0
8480,-0.531607,0.071054,1.22111,0
8500,-0.524427,0.0592756,1.2212,0
8520,-0.51295,0.0466159,1.2174,0
8540,-0.496806,0.033795,1.20933,0
8560,-0.47851,0.0223266,1.19773,0
8580,-0.462478,0.0131392,1.18436,0
8600,-0.453116,0.00730169,1.17147,0
8620,-0.451656,0.00609825,1.15935,0
8640,-0.457455,0.0110259,1.14831,0
8660,-0.466898,0.0191816,1.1372,0
8680,-0.473501,0.0259429,1.12463,0
8700,-0.481683,0.029868,1.11342,0
8720,-0.49285,0.0337887,1.10555,0
8740,-0.50106,0.040388,1.10405,0
8760,-0.509786,0.0513566,1.1115,0
8780,-0.520381,0.0631075,1.12637,0
8800,-0.533823,0.0727478,1.14318,0
8820,-0.547425,0.078775,1.1611,0
8840,-0.559843,0.0815237,1.18128,0
8860,-0.567813,0.08047,1.2028,0
8880,-0.570496,0.0737089,1.22207,0
8900,-0.569834,0.062916,1.2379,0
8920,-0.56832,0.0473492,1.2515,0
8940,-0.565946,0.027489,1.26353,0
8960,-0.562903,0.00339512,1.2726,0
8980,-0.559001,-0.0242702,1.27793,0
9000,-0.554549,-0.0554401,1.28072,0
9020,-0.54995,-0.0886154,1.281,0
9040,-0.546365,-0.123485,1.27673,0
9060,-0.543165,-0.158766,1.26653,0
9070,-0.539783,-0.192751,1.2527,0
9070,-0.535186,-0.225513,1.23665,0
9090,-0.528459,-0.257409,1.21817,0
9110,-0.522826,-0.288264,1.19756,0
9160,-0.518993,-0.316071,1.17825,0
9180,-0.517562,-0.337364,1.15868,0
9200,-0.515111,-0.350622,1.13661,0
9220,-0.510195,-0.358732,1.11349,0
9240,-0.505048,-0.361622,1.08973,0
9260,-0.502564,-0.359974,1.06756,0
9280,-0.500453,-0.353747,1.04635,0
9300,-0.497222,-0.342703,1.02415,0
9320,-0.49238,-0.32625,1.00115,0
9340,-0.487564,-0.304976,0.978596,0
9360,-0.481572,-0.279952,0.957572,0
9380,-0.477924,-0.251193,0.938972,0
9400,-0.478666,-0.219107,0.924101,0
9420,-0.481006,-0.185185,0.913898,0
9440,-0.483549,-0.149527,0.90832,0
9460,-0.490711,-0.113594,0.905758,0
9470,-0.499492,-0.0775717,0.905034,0
9490,-0.507518,-0.041076,0.907862,0
9510,-0.514917,-0.00595326,0.917062,0
9530,-0.525767,0.0269872,0.932356,0
9550,-0.540628,0.0593504,0.95553,0
9570,-0.559198,0.0895562,0.988341,0
9590,-0.576979,0.11689,1.02703,0
9610,-0.594174,0.13723,1.06331,0
9630,-0.609067,0.150407,1.09644,0
9650,-0.618146,0.156437,1.13155,0
9670,-0.622655,0.160882,1.16973,0
9690,-0.628043,0.156723,1.20528,0
9710,-0.636292,0.145759,1.23665,0
9730,-0.645647,0.130417,1.2676,0
9750,-0.654009,0.10926,1.2984,0
9770,-0.659137,0.0826723,1.32734,0
9790,-0.662732,0.0495008,1.35377,0
9810,-0.665775,0.0117403,1.37756,0
9830,-0.669765,-0.0291101,1.39941,0
9850,-0.677682,-0.0742542,1.41812,0
9870,-0.688982,-0.121151,1.43337,0
9890,-0.70357,-0.168679,1.44675,0
9910,-0.720377,-0.216389,1.4579,0
9930,-0.737596,-0.263534,1.46516,0
9950,-0.752821,-0.310096,1.46863,0
9970,-0.768084,-0.351374,1.47004,0
9990,-0.782984,-0.390804,1.47018,0
10010,-0.796863,-0.428376,1.46736,0
10030,-0.808814,-0.463481,1.46071,0
10050,-0.81796,-0.495574,1.45018,0
10070,-0.824194,-0.524433,1.43626,0
10090,-0.826537,-0.549356,1.4183,0
10110,-0.825558,-0.569652,1.39717,0
10130,-0.822622,-0.585357,1.37399,0
10150,-0.816552,-0.596618,1.3485,0
10170,-0.804729,-0.604748,1.31996,0
10190,-0.788173,-0.609516,1.28867,0
10210,-0.766391,-0.610885,1.25446,0
10230,-0.739975,-0.609429,1.2176,0
10250,-0.711811,-0.60405,1.1795,0
10270,-0.685714,-0.594292,1.14239,0
10290,-0.662555,-0.579024,1.10743,0
10310,-0.643302,-0.558507,1.07536,0
10330,-0.6265,-0.533811,1.04746,0
10350,-0.609917,-0.507791,1.02286,0
10370,-0.595284,-0.479372,0.999736,0
10390,-0.585632,-0.448339,0.980824,0
10410,-0.579741,-0.415235,0.965653,0
10430,-0.577556,-0.379098,0.954913,0
10450,-0.581787,-0.339469,0.950533,0
10470,-0.590456,-0.2981,0.951301,0
10490,-0.598918,-0.257801,0.956155,0
10510,-0.604655,-0.220122,0.962894,0
10530,-0.609251,-0.183547,0.970197,0
10550,-0.613091,-0.145256,0.982678,0
10570,-0.618395,-0.107493,1.00063,0
10590,-0.625786,-0.0715153,1.02106,0
10610,-0.635812,-0.0368331,1.04372,0
10630,-0.645992,-0.00622509,1.0686,0
10650,-0.653313,0.0173566,1.09252,0
10670,-0.658073,0.0392193,1.11779,0
10690,-0.660724,0.0585004,1.14578,0
10710,-0.661915,0.0712309,1.17204,0
10730,-0.661858,0.0788098,1.19756,0
10750,-0.663643,0.0829809,1.22482,0
10770,-0.666104,0.085354,1.25491,0
10790,-0.667946,0.0831469,1.28393,0
10810,-0.670378,0.0763919,1.30994,0
10830,-0.673251,0.0690342,1.33503,0
10850,-0.675941,0.0604697,1.35939,0
10870,-0.677155,0.0498616,1.38059,0
10890,-0.678757,0.0387765,1.39867,0
10910,-0.681568,0.0274051,1.41547,0
10930,-0.684921,0.0150207,1.43072,0
10950,-0.688869,0.000707924,1.44427,0
10970,-0.693931,-0.0142215,1.45599,0
10990,-0.697779,-0.02908,1.46662,0
11010,-0.70129,-0.0440985,1.47718,0
11030,-0.705197,-0.0594653,1.48732,0
11050,-0.710012,-0.0747715,1.49658,0
11070,-0.715008,-0.088784,1.50434,0
11090,-0.719594,-0.101337,1.51061,0
11110,-0.72398,-0.112445,1.51599,0
11130,-0.728354,-0.122254,1.52072,0
11150,-0.732896,-0.130842,1.52422,0
11170,-0.73648,-0.138097,1.52504,0
11190,-0.738215,-0.142804,1.52433,0
11210,-0.737414,-0.147081,1.52447,0
11230,-0.735542,-0.150892,1.52394,0
11250,-0.733423,-0.15292,1.5227,0
11270,-0.73194,-0.15372,1.52118,0
11290,-0.730182,-0.153886,1.51998,0
11310,-0.729028,-0.153753,1.51924,0
11330,-0.727354,-0.153739,1.51782,0
11350,-0.725266,-0.153251,1.51566,0
11370,-0.723061,-0.152573,1.5132,0
11390,-0.721419,-0.151745,1.51075,0
11410,-0.720404,-0.151005,1.5079,0
11430,-0.719351,-0.150413,1.5046,0
11450,-0.718117,-0.149839,1.50086,0
11470,-0.716189,-0.149852,1.49658,0
11490,-0.713579,-0.150319,1.49172,0
11510,-0.711976,-0.150925,1.48682,0
11530,-0.71076,-0.151357,1.48239,0
11550,-0.709096,-0.152165,1.47774,0
11570,-0.70706,-0.15308,1.47318,0
11590,-0.705582,-0.154247,1.46897,0
11610,-0.704361,-0.154991,1.46554,0
11630,-0.702966,-0.155312,1.46256,0
11650,-0.702412,-0.155628,1.45958,0
11670,-0.701781,-0.155502,1.45654,0
11690,-0.700615,-0.155486,1.45404,0
11710,-0.699041,-0.155479,1.45222,0
11730,-0.697569,-0.154853,1.45072,0
11750,-0.696517,-0.153972,1.4496,0
11770,-0.694826,-0.153327,1.44849,0
11790,-0.692785,-0.152111,1.44736,0
11810,-0.690851,-0.150279,1.44653,0
11830,-0.689311,-0.148218,1.44594,0
11850,-0.688116,-0.145954,1.4459,0
11870,-0.68616,-0.143536,1.44551,0
11890,-0.684282,-0.141232,1.44504,0
11910,-0.682901,-0.138463,1.44475,0
11930,-0.681911,-0.135632,1.44475,0
11950,-0.681168,-0.133014,1.44443,0
11970,-0.680219,-0.130336,1.44368,0
11990,-0.678758,-0.127316,1.44328,0
12010,-0.677233,-0.124393,1.44342,0
12030,-0.676247,-0.121473,1.4436,0
12040,-0.675828,-0.118737,1.44354,0
12060,-0.675293,-0.115777,1.44319,0
12080,-0.674799,-0.112617,1.44346,0
12100,-0.673653,-0.109391,1.44348,0
12120,-0.672502,-0.106282,1.44321,0
12140,-0.671443,-0.102798,1.44268,0
12160,-0.670988,-0.0985659,1.44189,0
12180,-0.670455,-0.0940735,1.4415,0
12200,-0.669534,-0.0901324,1.44103,0
12220,-0.668621,-0.0861429,1.44021,0
12240,-0.668262,-0.0817764,1.43946,0
12260,-0.668335,-0.0768337,1.43898,0
12280,-0.668698,-0.0718002,1.43857,0
12300,-0.668856,-0.0671374,1.43806,0
12320,-0.668846,-0.0624919,1.43752,0
12340,-0.66844,-0.0579845,1.43691,0
12360,-0.668062,-0.0530954,1.43635,0
12380,-0.667892,-0.0483328,1.43557,0
12400,-0.668157,-0.0438817,1.43421,0
12420,-0.667875,-0.0395565,1.43289,0
12420,-0.667221,-0.0353971,1.43152,0
12440,-0.666218,-0.0314304,1.43011,0
12460,-0.665856,-0.0273987,1.42873,0
12480,-0.66503,-0.0235006,1.42709,0
12500,-0.664029,-0.0197788,1.42547,0
12520,-0.663229,-0.0159347,1.4237,0
12540,-0.662596,-0.012569,1.42165,0
12560,-0.66154,-0.00878989,1.41934,0
12580,-0.660638,-0.00468494,1.41731,0
12600,-0.659427,-0.000670105,1.41507,0
12620,-0.657686,0.00292772,1.41265,0
12640,-0.656079,0.00697803,1.40963,0
12660,-0.654625,0.0115444,1.40683,0
12680,-0.653086,0.0160399,1.40406,0
12700,-0.651429,0.0203343,1.402,0
12720,-0.649598,0.0244583,1.39998,0
12740,-0.647306,0.0280555,1.39767,0
12760,-0.644654,0.0310227,1.39516,0
12780,-0.642056,0.0335029,1.39317,0
12800,-0.638986,0.0358393,1.39146,0
12820,-0.635825,0.038377,1.39001,0
12840,-0.63261,0.0409857,1.38854,0
12860,-0.628842,0.0445523,1.38732,0
12880,-0.625411,0.0482453,1.38652,0
12900,-0.621863,0.0525823,1.38601,0
12920,-0.618537,0.0581891,1.38588,0
12940,-0.614813,0.0656574,1.38633,0
12960,-0.610035,0.0755413,1.38725,0
12980,-0.605259,0.0870721,1.38899,0
13000,-0.598446,0.101101,1.39025,0
13020,-0.591165,0.119009,1.39265,0
13040,-0.584745,0.139272,1.39851,0
13060,-0.578685,0.160048,1.40554,0
13080,-0.574197,0.182858,1.41156,0
13100,-0.570375,0.209413,1.41852,0
13120,-0.566588,0.238168,1.42733,0
13140,-0.563727,0.263487,1.4338,0
13160,-0.560565,0.289184,1.43638,0
13180,-0.558514,0.315615,1.43833,0
13200,-0.55575,0.341067,1.43988,0
13220,-0.551022,0.365155,1.43954,0
13240,-0.545604,0.388643,1.4382,0
13260,-0.539494,0.41101,1.43702,0
13280,-0.539828,0.42957,1.43508,0
13300,-0.552298,0.44229,1.44484,0
13320,-0.563275,0.453407,1.46415,0
13340,-0.576707,0.468775,1.46492,0
13360,-0.584957,0.487672,1.46067,0
13380,-0.58474,0.496568,1.46109,0
13400,-0.5884,0.495003,1.4609,0
13420,-0.588093,0.490669,1.46466,0
13440,-0.585858,0.49084,1.4722,0
13460,-0.581146,0.495201,1.47805,0
13480,-0.581335,0.49923,1.47872,0
13500,-0.589084,0.501213,1.47605,0
13520,-0.595568,0.50105,1.47641,0
13540,-0.59927,0.5,1.47909,0
13560,-0.6009,0.498646,1.48002,0
13580,-0.598819,0.498378,1.47997,0
13600,-0.594387,0.49844,1.481,0
13620,-0.591778,0.498629,1.48226,0
13640,-0.591495,0.49789,1.48327,0
13660,-0.590602,0.496598,1.48565,0
13680,-0.589262,0.494319,1.4879,0
13700,-0.586596,0.492452,1.48951,0
13720,-0.583114,0.491061,1.49124,0
13740,-0.579949,0.490342,1.49236,0
13760,-0.577456,0.489505,1.49331,0
13780,-0.576769,0.4888,1.49353,0
13800,-0.576881,0.488409,1.49279,0
13820,-0.577049,0.48867,1.49144,0
13840,-0.576044,0.488856,1.49025,0
13860,-0.574906,0.488647,1.48966,0
13880,-0.573126,0.487833,1.48929,0
13900,-0.571268,0.487158,1.4891,0
13920,-0.569834,0.486647,1.48911,0
13940,-0.568401,0.486101,1.4893,0
13960,-0.567235,0.48616,1.48966,0
13980,-0.5659,0.486163,1.48982,0
14000,-0.564359,0.486175,1.49035,0
14020,-0.562616,0.486462,1.49126,0
14040,-0.560966,0.487164,1.49193,0
14060,-0.560403,0.488041,1.49283,0
14080,-0.560871,0.488361,1.49358,0
14100,-0.562379,0.48865,1.49379,0
14120,-0.563673,0.488686,1.49343,0
14140,-0.564133,0.488782,1.49305,0
14160,-0.564221,0.489085,1.49245,0
14180,-0.564107,0.489615,1.49204,0
14200,-0.564071,0.489886,1.49202,0
14220,-0.56437,0.490172,1.49201,0
14240,-0.564669,0.490459,1.49199,0
14260,-0.565095,0.490839,1.49198,0
14280,-0.565095,0.490839,1.49198,0
14300,-0.565101,0.491073,1.49216,0
14320,-0.565151,0.491405,1.49232,0
14340,-0.565461,0.49216,1.49267,0
14360,-0.565729,0.492867,1.49282,0
14380,-0.565857,0.492961,1.49282,0
14400,-0.565903,0.493144,1.49281,0
14420,-0.565779,0.493234,1.49279,0
14440,-0.565907,0.493329,1.4928,0
14460,-0.565911,0.493513,1.49278,0
14480,-0.565957,0.493696,1.49277,0
14500,-0.565713,0.493975,1.49314,0
14520,-0.5653,0.494197,1.4933,0
14540,-0.565178,0.494336,1.49348,0
14560,-0.564638,0.494513,1.49385,0
14580,-0.564516,0.494652,1.49403,0
14600,-0.564104,0.494923,1.49439,0
14610,-0.56419,0.495019,1.49439,0
14630,-0.563818,0.495239,1.49456,0
14650,-0.563151,0.495321,1.49492,0
14670,-0.562443,0.495489,1.49529,0
14690,-0.562489,0.495672,1.49528,0
14710,-0.562366,0.495762,1.49527,0
14730,-0.562493,0.495857,1.49527,0
14750,-0.562412,0.495945,1.49526,0
14770,-0.562161,0.49599,1.49544,0
14790,-0.562207,0.496173,1.49544,0
14810,-0.562084,0.496263,1.49542,0
14830,-0.562212,0.496407,1.49562,0
14850,-0.562131,0.496495,1.49561,0
14870,-0.562007,0.496585,1.4956,0
14890,-0.562053,0.496768,1.49559,0
14910,-0.562181,0.496863,1.49559,0
14930,-0.562057,0.496953,1.49558,0
14950,-0.562103,0.497136,1.49557,0
14970,-0.562231,0.497231,1.49557,0
14990,-0.562107,0.497321,1.49556,0
15010,-0.562153,0.497504,1.49555,0
15030,-0.562153,0.497504,1.49555,0
15050,-0.562157,0.497689,1.49554,0
15070,-0.562203,0.497872,1.49554,0
15090,-0.562203,0.497872,1.49554,0
15110,-0.562079,0.497962,1.49552,0
15130,-0.562126,0.498145,1.49552,0
15150,-0.562211,0.498241,1.49551,0
15170,-0.56213,0.49833,1.4955,0
15190,-0.562176,0.498513,1.4955,0
15210,-0.562262,0.498609,1.49549,0
15230,-0.56218,0.498698,1.49548,0
15250,-0.562308,0.498793,1.49548,0
15270,-0.562184,0.498882,1.49547,0
15290,-0.56223,0.499066,1.49546,0
15310,-0.562358,0.499161,1.49546,0
15330,-0.562234,0.49925,1.49545,0
15350,-0.562281,0.499434,1.49544,0
15370,-0.562281,0.499434,1.49544,0
15390,-0.562285,0.499618,1.49543,0
15410,-0.562331,0.499802,1.49542,0
15430,-0.561789,0.499928,1.4956,0
15450,-0.561871,0.49989,1.4958,0
15470,-0.561581,0.500021,1.49598,0
15490,-0.561038,0.500161,1.49654,0
15510,-0.560374,0.500476,1.49709,0
15530,-0.560016,0.501512,1.49818,0
15550,-0.559614,0.502626,1.50024,0
15570,-0.55747,0.50285,1.50366,0
15590,-0.556518,0.504397,1.50937,0
15610,-0.553341,0.506229,1.51681,0
15630,-0.549432,0.505528,1.52301,0
15650,-0.546877,0.501533,1.52916,0
15670,-0.543968,0.496513,1.53671,0
15690,-0.542536,0.491944,1.54663,0
15710,-0.546291,0.486595,1.55753,0
15730,-0.554503,0.480872,1.56874,0
15750,-0.568081,0.47811,1.57668,0
15770,-0.577384,0.476962,1.5829,0
15790,-0.578586,0.480216,1.59655,0
15810,-0.580443,0.485313,1.61195,0
15830,-0.5873,0.48819,1.62554,0
15850,-0.595993,0.489578,1.63831,0
15870,-0.603619,0.490675,1.65162,0
15890,-0.608544,0.490184,1.6658,0
15910,-0.612954,0.48775,1.67911,0
15930,-0.618609,0.484629,1.691,0
15950,-0.623006,0.483028,1.70217,0
15970,-0.62585,0.483011,1.71139,0
15990,-0.62897,0.483127,1.71741,0
16010,-0.630884,0.481719,1.72199,0
16030,-0.631403,0.479789,1.72508,0
16050,-0.629329,0.477892,1.7273,0
16070,-0.627735,0.473791,1.73017,0
16090,-0.627367,0.466914,1.732,0
16110,-0.625808,0.460213,1.73323,0
16130,-0.623619,0.452043,1.73017,0
16150,-0.619396,0.442199,1.72542,0
16170,-0.613151,0.435182,1.72488,0
16190,-0.60964,0.429242,1.72555,0
16210,-0.608478,0.422263,1.72365,0
16230,-0.608244,0.415022,1.72022,0
16250,-0.606861,0.407191,1.71605,0
16270,-0.603722,0.398477,1.71065,0
16290,-0.600457,0.39022,1.70866,0
16310,-0.599465,0.380852,1.70874,0
16330,-0.604611,0.370511,1.70453,0
16350,-0.615589,0.357662,1.69284,0
16370,-0.62295,0.344056,1.67887,0
16390,-0.623872,0.329838,1.66273,0
16410,-0.620584,0.314775,1.64486,0
16430,-0.614873,0.301396,1.62707,0
16450,-0.609838,0.290483,1.60978,0
16470,-0.609492,0.2785,1.591,0
16490,-0.615143,0.264924,1.56889,0
16510,-0.616587,0.249982,1.5479,0
16530,-0.610483,0.232664,1.52812,0
16550,-0.600723,0.206415,1.50951,0
16570,-0.595108,0.172283,1.4914,0
16590,-0.590899,0.132738,1.47186,0
16610,-0.584845,0.086523,1.44987,0
16630,-0.581146,0.0342954,1.42888,0
16650,-0.578773,-0.0231172,1.40999,0
16670,-0.577841,-0.0867798,1.39325,0
16690,-0.578672,-0.158176,1.37555,0
16710,-0.579883,-0.228194,1.35884,0
16730,-0.581335,-0.294946,1.34432,0
16750,-0.584484,-0.362073,1.32981,0
16770,-0.590863,-0.428814,1.31682,0
16790,-0.598823,-0.492994,1.30953,0
16810,-0.609106,-0.55571,1.30777,0
16830,-0.621904,-0.619944,1.309,0
16850,-0.639584,-0.68597,1.31571,0
16870,-0.666405,-0.751987,1.3327,0
16890,-0.695892,-0.814915,1.35702,0
16910,-0.734568,-0.873344,1.39337,0
16930,-0.786077,-0.927433,1.44278,0
16950,-0.852495,-0.977798,1.50641,0
16970,-0.930365,-1.02026,1.58329,0
16990,-1.02267,-1.05808,1.67287,0
17010,-1.12078,-1.09211,1.76679,0
17030,-1.22475,-1.11948,1.86635,0
17050,-1.33502,-1.13887,1.96857,0
17070,-1.44446,-1.15545,2.07017,0
17090,-1.54469,-1.16884,2.16264,0
17110,-1.64465,-1.17662,2.25228,0
17130,-1.72802,-1.18125,2.32416,0
17150,-1.79229,-1.182,2.3799,0
17170,-1.84964,-1.17921,2.42741,0
17180,-1.95041,-1.11652,2.55371,0
17200,-1.94554,-1.10427,2.58735,0
17220,-1.94268,-1.11345,2.60391,0
17240,-1.95603,-1.12239,2.61592,0
17260,-1.97486,-1.1273,2.62118,0
17280,-1.99313,-1.13208,2.62697,0
17300,-2.00743,-1.13585,2.63555,0
17320,-2.01268,-1.1399,2.6401,0
17340,-2.01925,-1.14375,2.64727,0
17360,-2.03304,-1.14571,2.65604,0
17380,-2.04789,-1.14659,2.6637,0
17400,-2.0616,-1.14707,2.67221,0
17420,-2.07345,-1.14799,2.68022,0
17440,-2.08332,-1.14762,2.68597,0
17460,-2.09653,-1.14639,2.69295,0
17480,-2.11143,-1.14623,2.70291,0
17500,-2.12495,-1.14674,2.71256,0
17520,-2.13777,-1.14762,2.72199,0
17540,-2.15114,-1.14874,2.73123,0
17560,-2.16408,-1.14904,2.741,0
17580,-2.17585,-1.14913,2.75195,0
17600,-2.18537,-1.14901,2.76198,0
17620,-2.1957,-1.14845,2.77126,0
17640,-2.20356,-1.14771,2.77771,0
17660,-2.21097,-1.14423,2.7831,0
17680,-2.21582,-1.14121,2.78763,0
17700,-2.21819,-1.13805,2.79234,0
17720,-2.22351,-1.13667,2.7976,0
17740,-2.22653,-1.1369,2.80081,0
17760,-2.22924,-1.13732,2.80375,0
17780,-2.23462,-1.13769,2.8082,0
17800,-2.23958,-1.1377,2.81156,0
17820,-2.24141,-1.13786,2.81107,0
17840,-2.23959,-1.13772,2.80788,0
17860,-2.23153,-1.13882,2.80032,0
17880,-2.22734,-1.14075,2.79731,0
17900,-2.23004,-1.14441,2.79952,0
17920,-2.2333,-1.14748,2.80071,0
17940,-2.23837,-1.14899,2.80112,0
17960,-2.24193,-1.15178,2.80421,0
17980,-2.24203,-1.15441,2.80561,0
18000,-2.2396,-1.15693,2.80371,0
18020,-2.23512,-1.15749,2.79908,0
18040,-2.2303,-1.15742,2.79349,0
18060,-2.22628,-1.15932,2.7896,0
18080,-2.21762,-1.15984,2.78321,0
18100,-2.21053,-1.16025,2.77679,0
18120,-2.20061,-1.16285,2.76583,0
18140,-2.18583,-1.1666,2.74897,0
18160,-2.17419,-1.16983,2.7377,0
18180,-2.17041,-1.17327,2.7347,0
18200,-2.17504,-1.17603,2.74005,0
18220,-2.18798,-1.17677,2.7538,0
18240,-2.20541,-1.17638,2.77157,0
18260,-2.22631,-1.17551,2.79347,0
18280,-2.24943,-1.17352,2.81831,0
18300,-2.27013,-1.16994,2.84099,0
18320,-2.28591,-1.16477,2.85941,0
18340,-2.29791,-1.1592,2.87524,0
18360,-2.31022,-1.15374,2.89236,0
18380,-2.32065,-1.14834,2.9063,0
18400,-2.32665,-1.14345,2.91492,0
18420,-2.32881,-1.13861,2.92181,0
18440,-2.33149,-1.13481,2.92991,0
18460,-2.33831,-1.13276,2.94064,0
18480,-2.34482,-1.13011,2.94909,0
18500,-2.34821,-1.12713,2.95303,0
18520,-2.35257,-1.12379,2.95943,0
18540,-2.35561,-1.12096,2.96486,0
18560,-2.35548,-1.12017,2.96621,0
18580,-2.35419,-1.1213,2.96453,0
18600,-2.34549,-1.12388,2.95538,0
18620,-2.32901,-1.12694,2.93959,0
18640,-2.31217,-1.12931,2.9221,0
18660,-2.2963,-1.13042,2.90408,0
18680,-2.28167,-1.13129,2.888,0
18700,-2.2696,-1.13208,2.87502,0
18720,-2.26052,-1.13162,2.86558,0
18740,-2.25456,-1.13084,2.85969,0
18760,-2.25273,-1.12919,2.85545,0
18780,-2.25351,-1.12927,2.85332,0
18800,-2.25409,-1.1287,2.85138,0
18820,-2.25401,-1.12855,2.84878,0
18840,-2.24921,-1.13021,2.84308,0
18860,-2.24216,-1.13217,2.83412,0
18880,-2.23387,-1.13509,2.8219,0
18900,-2.22409,-1.13917,2.80711,0
18920,-2.20997,-1.14364,2.78701,0
18940,-2.19567,-1.14762,2.76844,0
18960,-2.18044,-1.15044,2.75124,0
18980,-2.17338,-1.15106,2.74178,0
19000,-2.17101,-1.1503,2.7379,0
19020,-2.17128,-1.15036,2.73819,0
19040,-2.1769,-1.15535,2.7421,0
19060,-2.17643,-1.16163,2.73666,0
19080,-2.16937,-1.16722,2.72625,0
19100,-2.15916,-1.17258,2.71536,0
19120,-2.14714,-1.17685,2.70248,0
19140,-2.13142,-1.18074,2.68535,0
19160,-2.1136,-1.18387,2.66646,0
19180,-2.09574,-1.18608,2.64653,0
19200,-2.07781,-1.1874,2.62558,0
19220,-2.06027,-1.18932,2.60524,0
19240,-2.04215,-1.19097,2.58358,0
19260,-2.02334,-1.19252,2.55827,0
19280,-2.00172,-1.19354,2.53037,0
19300,-1.98049,-1.19272,2.50277,0
19320,-1.9605,-1.19217,2.47354,0
19340,-1.938,-1.19245,2.44454,0
19360,-1.9202,-1.19169,2.42304,0
19380,-1.90889,-1.18918,2.406,0
19400,-1.89574,-1.18829,2.38747,0
19420,-1.88753,-1.18579,2.37719,0
19440,-1.88511,-1.18246,2.37552,0
19460,-1.89115,-1.18057,2.38444,0
19480,-1.90325,-1.17973,2.39473,0
19500,-1.91278,-1.18054,2.40057,0
19520,-1.92054,-1.18255,2.40583,0
19540,-1.92705,-1.18536,2.40958,0
19560,-1.92927,-1.18689,2.4073,0
19580,-1.92264,-1.187,2.396,0
19600,-1.90871,-1.18443,2.38074,0
19620,-1.89496,-1.18231,2.36748,0
19640,-1.88925,-1.18021,2.36011,0
19660,-1.8849,-1.17633,2.35208,0
19680,-1.87725,-1.1741,2.34261,0
19700,-1.86858,-1.17346,2.33416,0
19720,-1.85842,-1.17372,2.32535,0
19740,-1.84917,-1.17389,2.31699,0
19750,-1.83948,-1.17545,2.3083,0
19770,-1.83222,-1.17664,2.30278,0
19790,-1.82965,-1.17726,2.30256,0
19810,-1.82873,-1.17522,2.30512,0
19830,-1.82721,-1.17233,2.30657,0
19850,-1.8248,-1.16997,2.30664,0
19870,-1.82342,-1.1673,2.30596,0
19890,-1.82406,-1.16457,2.30837,0
19910,-1.8256,-1.16365,2.31213,0
19930,-1.82711,-1.16352,2.31464,0
19950,-1.83041,-1.16323,2.31798,0
19970,-1.83495,-1.16252,2.32375,0
19990,-1.83991,-1.16237,2.33006,0
20010,-1.84429,-1.16242,2.3333,0
20030,-1.84729,-1.16117,2.33419,0
20050,-1.84956,-1.15929,2.336,0
20070,-1.85358,-1.15829,2.34031,0
20090,-1.85762,-1.1585,2.34459,0
20110,-1.86215,-1.15863,2.34964,0
20130,-1.86798,-1.1579,2.35553,0
20150,-1.87351,-1.15966,2.36107,0
20170,-1.87816,-1.16197,2.36537,0
20190,-1.88285,-1.16342,2.36865,0
20210,-1.8877,-1.16414,2.37234,0
20230,-1.89274,-1.16377,2.37631,0
20250,-1.89722,-1.16463,2.37978,0
20270,-1.90091,-1.16532,2.38292,0
20290,-1.90603,-1.16647,2.38752,0
20310,-1.91168,-1.16806,2.39264,0
20330,-1.91553,-1.16884,2.39601,0
20350,-1.91757,-1.16991,2.39965,0
20370,-1.92213,-1.17233,2.40484,0
20390,-1.92681,-1.17405,2.40896,0
20410,-1.9299,-1.17549,2.41136,0
20430,-1.93145,-1.17592,2.41289,0
20450,-1.93189,-1.17608,2.41359,0
20470,-1.93178,-1.1749,2.41358,0
20490,-1.933,-1.17329,2.41424,0
20510,-1.93422,-1.17168,2.41489,0
20530,-1.93415,-1.17119,2.41439,0
20550,-1.93047,-1.17193,2.41168,0
20570,-1.92884,-1.17299,2.41164,0
20590,-1.92996,-1.173,2.41453,0
20610,-1.93201,-1.17211,2.41625,0
20630,-1.93039,-1.17292,2.41531,0
20650,-1.93089,-1.17457,2.41717,0
20670,-1.93346,-1.1754,2.41829,0
20690,-1.93865,-1.17516,2.42142,0
20710,-1.94699,-1.17405,2.42616,0
20730,-1.95617,-1.17475,2.43447,0
20750,-1.96637,-1.17761,2.44431,0
20770,-1.97702,-1.18122,2.45087,0
20790,-1.97878,-1.18291,2.44733,0
20810,-1.9725,-1.18316,2.43897,0
20830,-1.96508,-1.18242,2.43432,0
20850,-1.95932,-1.1806,2.43008,0
20870,-1.95532,-1.18046,2.42679,0
20890,-1.94193,-1.17978,2.4177,0
20910,-1.92794,-1.17671,2.40974,0
20930,-1.91843,-1.17398,2.40723,0
20950,-1.91421,-1.17124,2.40793,0
20970,-1.90753,-1.1673,2.40635,0
20990,-1.89544,-1.16235,2.4024,0
21010,-1.88629,-1.15755,2.40062,0
21030,-1.88286,-1.15405,2.4013,0
21050,-1.88082,-1.15012,2.4023,0
21070,-1.87644,-1.14526,2.40253,0
21090,-1.86924,-1.14,2.40158,0
21110,-1.8647,-1.13438,2.40323,0
21130,-1.86303,-1.12825,2.40684,0
21150,-1.86273,-1.12151,2.41227,0
21170,-1.86959,-1.11334,2.42477,0
21190,-1.88388,-1.1075,2.44653,0
21210,-1.90055,-1.10283,2.47083,0
21230,-1.90664,-1.09767,2.4914,0
21250,-1.91125,-1.09615,2.50434,0
21270,-1.91431,-1.09418,2.50741,0
21290,-1.91846,-1.09249,2.50797,0
21310,-1.91869,-1.0887,2.50733,0
21330,-1.91715,-1.08593,2.50346,0
21350,-1.91476,-1.08571,2.49601,0
21370,-1.90809,-1.08546,2.48159,0
21390,-1.89901,-1.08592,2.46539,0
21410,-1.89094,-1.08595,2.45018,0
21430,-1.88642,-1.08676,2.43744,0
21450,-1.88317,-1.08751,2.42665,0
21470,-1.88219,-1.08723,2.41704,0
21490,-1.88194,-1.08508,2.40622,0
21510,-1.88412,-1.0829,2.39781,0
21530,-1.88796,-1.08169,2.39381,0
21550,-1.89658,-1.0825,2.39203,0
21570,-1.90636,-1.08297,2.38683,0
21590,-1.91383,-1.08207,2.37966,0
21610,-1.92034,-1.08226,2.37457,0
21630,-1.9283,-1.08521,2.3728,0
21650,-1.93743,-1.08937,2.37203,0
21670,-1.94633,-1.09451,2.3709,0
21690,-1.9541,-1.09892,2.37091,0
21710,-1.96039,-1.10355,2.37177,0
21730,-1.96547,-1.10907,2.37351,0
21750,-1.97244,-1.11711,2.37683,0
21770,-1.98151,-1.12641,2.38251,0
21790,-1.99188,-1.13554,2.38906,0
21810,-2.0016,-1.1448,2.39509,0
21830,-2.01669,-1.15301,2.4058,0
21850,-2.03225,-1.15964,2.41627,0
21870,-2.04632,-1.16492,2.42756,0
21890,-2.06233,-1.17002,2.43902,0
21910,-2.07734,-1.17477,2.44775,0
21930,-2.09014,-1.1767,2.45407,0
21950,-2.10284,-1.17708,2.46137,0
21970,-2.12055,-1.17719,2.47457,0
21990,-2.14328,-1.17755,2.49112,0
22010,-2.16383,-1.17808,2.5042,0
22030,-2.17822,-1.17684,2.51247,0
22050,-2.1904,-1.17392,2.51935,0
22070,-2.19965,-1.17111,2.52474,0
22090,-2.20936,-1.16912,2.53093,0
22110,-2.21623,-1.16646,2.53664,0
22130,-2.22179,-1.1622,2.54071,0
22150,-2.22665,-1.15769,2.54352,0
22170,-2.23094,-1.15407,2.54586,0
22190,-2.23434,-1.15116,2.54812,0
22210,-2.23678,-1.14931,2.54988,0
22230,-2.2396,-1.14733,2.55387,0
22250,-2.24265,-1.14541,2.55777,0
22270,-2.24635,-1.14457,2.56242,0
22290,-2.24962,-1.14521,2.56787,0
22310,-2.2521,-1.14613,2.57467,0
22320,-2.25488,-1.14795,2.58271,0
22340,-2.25782,-1.15069,2.59283,0
22360,-2.25846,-1.15471,2.60209,0
22380,-2.25452,-1.161,2.60761,0
22400,-2.24694,-1.16475,2.60548,0
22420,-2.22813,-1.1677,2.59285,0
22440,-2.19123,-1.17138,2.56562,0
22460,-2.14127,-1.17735,2.52893,0
22480,-2.07514,-1.17891,2.47456,0
22500,-1.98568,-1.17803,2.39399,0
22520,-1.86508,-1.17286,2.28861,0
22540,-1.71869,-1.15833,2.16301,0
22560,-1.57202,-1.12071,2.03683,0
22580,-1.46413,-1.06232,1.93773,0
22600,-1.36479,-0.987015,1.84954,0
22620,-1.26668,-0.896298,1.77181,0
22640,-1.19033,-0.797936,1.71984,0
22660,-1.12787,-0.698975,1.68218,0
22680,-1.07613,-0.594408,1.65576,0
22700,-1.03171,-0.481701,1.63869,0
22720,-0.993413,-0.379263,1.63156,0
22740,-0.966052,-0.291681,1.62921,0
22760,-0.948229,-0.198067,1.6282,0
22780,-0.939437,-0.0969127,1.63963,0
22800,-0.939523,-0.0119233,1.65525,0
22820,-0.942942,0.0567575,1.66638,0
22840,-0.948124,0.118701,1.67729,0
22860,-0.946948,0.167433,1.68545,0
22880,-0.940971,0.204676,1.68856,0
22900,-0.924411,0.237369,1.69228,0
22920,-0.90575,0.264579,1.69898,0
22940,-0.888769,0.285647,1.70475,0
22960,-0.879427,0.30364,1.70996,0
22980,-0.873843,0.31958,1.71764,0
23000,-0.874818,0.330542,1.7304,0
23020,-0.880958,0.335186,1.74705,0
23040,-0.885948,0.334189,1.76355,0
23060,-0.886561,0.329861,1.77858,0
23080,-0.883102,0.328752,1.79295,0
23100,-0.880221,0.3307,1.80718,0
23120,-0.882509,0.335236,1.82185,0
23140,-0.88655,0.340095,1.83069,0
23160,-0.894742,0.341558,1.83389,0
23180,-0.89993,0.343805,1.83715,0
23200,-0.897584,0.344128,1.83742,0
23220,-0.89167,0.342322,1.83639,0
23240,-0.880927,0.343487,1.83683,0
23260,-0.872392,0.345395,1.83661,0
23280,-0.867688,0.345717,1.83352,0
23300,-0.86277,0.348825,1.82787,0
23320,-0.859293,0.355015,1.82017,0
23340,-0.855358,0.363867,1.8125,0
23360,-0.844909,0.37697,1.80873,0
23380,-0.832755,0.39119,1.80835,0
23400,-0.829086,0.401029,1.80406,0
23420,-0.825142,0.410243,1.79666,0
23440,-0.821847,0.42182,1.79296,0
23460,-0.822409,0.42726,1.79436,0
23480,-0.827973,0.425757,1.79402,0
23500,-0.828307,0.425481,1.79393,0
23520,-0.820805,0.428505,1.79379,0
23540,-0.81396,0.432006,1.79509,0
23560,-0.813878,0.42847,1.793,0
23580,-0.817851,0.42149,1.78832,0
23600,-0.821002,0.419435,1.78495,0
23620,-0.821584,0.418774,1.78091,0
23640,-0.824054,0.410943,1.77224,0
23660,-0.819094,0.396554,1.76136,0
23680,-0.80265,0.381067,1.74777,0
23700,-0.785211,0.367739,1.73205,0
23720,-0.767508,0.358869,1.71918,0
23740,-0.755611,0.348174,1.71107,0
23760,-0.753789,0.330819,1.70132,0
23780,-0.746422,0.311184,1.69029,0
23800,-0.734823,0.29328,1.68536,0
23820,-0.718583,0.268759,1.6839,0
23840,-0.694403,0.24032,1.68033,0
23860,-0.668447,0.213993,1.68321,0
23880,-0.651712,0.187809,1.69099,0
23900,-0.646586,0.163524,1.69804,0
23920,-0.642132,0.139479,1.70317,0
23940,-0.634919,0.110441,1.70771,0
23960,-0.621333,0.0757679,1.71419,0
23980,-0.606468,0.0461017,1.72014,0
23990,-0.601863,0.0267537,1.7244,0
23990,-0.600665,0.0101384,1.73015,0
24020,-0.603725,-0.00884956,1.73574,0
24050,-0.609456,-0.0247295,1.73889,0
24070,-0.612126,-0.0386795,1.74438,0
24090,-0.613235,-0.0525055,1.74755,0
24110,-0.613018,-0.0574911,1.74306,0
24130,-0.615027,-0.0554861,1.74024,0
24150,-0.617152,-0.0616337,1.74164,0
24170,-0.61523,-0.0810978,1.74306,0
24190,-0.610504,-0.108317,1.74502,0
24210,-0.607222,-0.134299,1.74837,0
24230,-0.607044,-0.15335,1.75238,0
24250,-0.6102,-0.153319,1.7565,0
24270,-0.617999,-0.123359,1.75999,0
24290,-0.619348,-0.12478,1.76189,0
24310,-0.620044,-0.113191,1.76649,0
24330,-0.617721,-0.125837,1.7705,0
24350,-0.623567,-0.105602,1.77427,0
24370,-0.621313,-0.103131,1.77692,0
24390,-0.612136,-0.11781,1.77867,0
24410,-0.605601,-0.130557,1.78124,0
24430,-0.604943,-0.137687,1.7829,0
24450,-0.604849,-0.141352,1.78193,0
24470,-0.600968,-0.146115,1.78063,0
24490,-0.592403,-0.154985,1.78095,0
24510,-0.582742,-0.167401,1.7815,0
24530,-0.578242,-0.175435,1.78208,0
24550,-0.58565,-0.166313,1.78353,0
24570,-0.597683,-0.150277,1.7858,0
24590,-0.594289,-0.154813,1.78663,0
24610,-0.593201,-0.15607,1.7892,0
24630,-0.60675,-0.142366,1.79273,0
24650,-0.594074,-0.154639,1.79064,0
24670,-0.602666,-0.139191,1.79243,0
24690,-0.597984,-0.141562,1.79506,0
24710,-0.609173,-0.126178,1.80014,0
24730,-0.601648,-0.134171,1.79965,0
24750,-0.615351,-0.116901,1.80157,0
24770,-0.599375,-0.123867,1.79995,0
24790,-0.599348,-0.127699,1.79998,0
24810,-0.61112,-0.115595,1.80023,0
24830,-0.596849,-0.119735,1.79726,0
24850,-0.590492,-0.129267,1.79365,0
24870,-0.605889,-0.118473,1.79172,0
24890,-0.605449,-0.110827,1.78667,0
24910,-0.595465,-0.119207,1.78031,0
24930,-0.60888,-0.113298,1.77793,0
24950,-0.620057,-0.0992031,1.77729,0
24970,-0.602157,-0.106767,1.77438,0
24990,-0.592269,-0.117033,1.77299,0
25010,-0.606762,-0.107044,1.77367,0
25030,-0.604913,-0.121228,1.77261,0
25050,-0.605474,-0.125485,1.76835,0
25070,-0.606341,-0.127808,1.7661,0
25090,-0.606259,-0.129181,1.7644,0
25110,-0.605372,-0.130073,1.76259,0
25130,-0.603833,-0.130172,1.76058,0
25150,-0.603578,-0.131188,1.75946,0
25170,-0.608782,-0.117708,1.75756,0
25190,-0.608036,-0.12338,1.7555,0
25210,-0.619874,-0.111632,1.75592,0
25230,-0.606886,-0.116062,1.75264,0
25250,-0.594402,-0.128826,1.74958,0
25270,-0.604859,-0.126046,1.75026,0
25290,-0.618055,-0.112707,1.75144,0
25310,-0.607251,-0.113089,1.74893,0
25330,-0.59103,-0.125753,1.74605,0
25350,-0.593151,-0.123556,1.74615,0
25370,-0.591174,-0.12889,1.74495,0
25390,-0.592071,-0.12649,1.74365,0
25410,-0.593851,-0.123212,1.7432,0
25430,-0.595852,-0.119825,1.74315,0
25450,-0.598012,-0.116496,1.74283,0
25470,-0.599076,-0.113099,1.7424,0
25490,-0.598924,-0.110139,1.74202,0
25510,-0.598269,-0.10771,1.74168,0
25530,-0.598221,-0.105413,1.74157,0
25550,-0.598736,-0.103233,1.74154,0
25570,-0.599355,-0.101683,1.74128,0
25590,-0.599943,-0.100183,1.74134,0
25610,-0.600633,-0.0986787,1.74166,0
25630,-0.601417,-0.0972193,1.74205,0
25650,-0.601502,-0.0971309,1.74205,0
25670,-0.601573,-0.096827,1.74216,0
25690,-0.601438,-0.0959185,1.74158,0
25710,-0.601432,-0.0954359,1.74103,0
25730,-0.601616,-0.0946757,1.74082,0
25750,-0.601593,-0.0945107,1.74076,0
25770,-0.601711,-0.0935216,1.74007,0
25790,-0.601843,-0.0922978,1.73966,0
25810,-0.602407,-0.0909508,1.7392,0
25830,-0.602637,-0.0889741,1.73878,0
25850,-0.602761,-0.0869211,1.73831,0
25870,-0.602833,-0.0850709,1.73808,0
25890,-0.602717,-0.0830479,1.73789,0
25910,-0.602231,-0.0812112,1.73723,0
25930,-0.601058,-0.0790136,1.73637,0
25950,-0.600179,-0.0769842,1.73572,0
25970,-0.599121,-0.0747309,1.7353,0
25990,-0.598135,-0.0719085,1.73529,0
26010,-0.59732,-0.0690948,1.73517,0
26030,-0.596808,-0.0667962,1.73477,0
26050,-0.596098,-0.0641094,1.73455,0
26070,-0.595949,-0.061227,1.73486,0
26090,-0.595923,-0.0586414,1.73556,0
26110,-0.596353,-0.0555982,1.73684,0
26130,-0.597416,-0.0521895,1.73884,0
26150,-0.598753,-0.0485472,1.74126,0
26170,-0.599678,-0.0449448,1.74298,0
26190,-0.599596,-0.0404867,1.74422,0
26210,-0.598731,-0.0352306,1.74591,0
26230,-0.596257,-0.029611,1.74711,0
26250,-0.593088,-0.0239859,1.74864,0
26270,-0.589941,-0.019031,1.74969,0
26290,-0.587393,-0.0145645,1.75029,0
26310,-0.584397,-0.0107453,1.75023,0
26330,-0.581754,-0.00753034,1.75028,0
26350,-0.578878,-0.00492369,1.74985,0
26370,-0.57634,-0.00201938,1.74968,0
26390,-0.574758,0.000771999,1.74964,0
26410,-0.573349,0.0030585,1.74888,0
26430,-0.572044,0.00531244,1.74776,0
26450,-0.571118,0.00727106,1.74668,0
26470,-0.570241,0.00877776,1.74534,0
26490,-0.569569,0.0100385,1.74374,0
26510,-0.568183,0.0108384,1.74187,0
26530,-0.566447,0.0119137,1.73996,0
26550,-0.564988,0.012865,1.7384,0
26570,-0.564161,0.0136004,1.73676,0
26590,-0.563404,0.0139559,1.73519,0
26610,-0.561986,0.0141339,1.73332,0
26630,-0.560245,0.0142115,1.73133,0
26650,-0.558344,0.0139485,1.72939,0
26670,-0.556282,0.0133449,1.72752,0
26690,-0.554126,0.0130093,1.72572,0
26710,-0.55211,0.0129057,1.72395,0
26730,-0.550537,0.0132047,1.72258,0
26750,-0.549416,0.0136921,1.72148,0
26770,-0.548525,0.0144975,1.7204,0
26790,-0.5479,0.0155703,1.71991,0
26810,-0.547818,0.016965,1.71986,0
26830,-0.547967,0.0182757,1.71959,0
26850,-0.548057,0.0197077,1.7196,0
26870,-0.548597,0.020876,1.72065,0
26890,-0.549072,0.0220717,1.72223,0
26910,-0.549547,0.0233151,1.72398,0
26930,-0.551325,0.0240409,1.7267,0
26950,-0.552636,0.0237599,1.72975,0
26970,-0.553946,0.0233886,1.73245,0
26990,-0.554361,0.023278,1.73575,0
27010,-0.554795,0.0230518,1.7399,0
27030,-0.555482,0.0231714,1.74484,0
27050,-0.557502,0.0236193,1.75075,0
27070,-0.560559,0.0237823,1.75691,0
27090,-0.563464,0.0234741,1.7626,0
27110,-0.565093,0.0230701,1.7665,0
27130,-0.565433,0.0226013,1.76816,0
27150,-0.564534,0.0228937,1.76895,0
27170,-0.562434,0.0245308,1.7716,0
27190,-0.560989,0.0259346,1.77477,0
27210,-0.560481,0.0258098,1.77521,0
27230,-0.559896,0.0249709,1.77343,0
27250,-0.558221,0.0239992,1.77093,0
27270,-0.555204,0.0229077,1.76759,0
27290,-0.552412,0.0211114,1.76292,0
27310,-0.54975,0.018571,1.7559,0
27330,-0.546986,0.0153297,1.74656,0
27350,-0.544535,0.0121747,1.73599,0
27370,-0.542036,0.00950029,1.72456,0
27390,-0.538637,0.0064473,1.71188,0
27410,-0.53504,0.00306291,1.69783,0
27430,-0.530558,-0.000434607,1.68346,0
27450,-0.52595,-0.00413088,1.66834,0
27470,-0.521495,-0.00758219,1.65317,0
27480,-0.51702,-0.010909,1.63756,0
27500,-0.513431,-0.0143534,1.62184,0
27520,-0.509793,-0.0167886,1.60692,0
27540,-0.505367,-0.0180827,1.59322,0
27560,-0.500073,-0.0185764,1.5817,0
27580,-0.496066,-0.0183346,1.5722,0
27600,-0.493319,-0.0169879,1.56475,0
27620,-0.492239,-0.0144375,1.55938,0
27640,-0.491868,-0.0103774,1.5556,0
27660,-0.491922,-0.00462257,1.55379,0
27680,-0.492949,0.00162798,1.55353,0
27700,-0.493889,0.00871929,1.55482,0
27720,-0.494648,0.0171129,1.55701,0
27740,-0.494987,0.0267272,1.55955,0
27760,-0.494119,0.0371642,1.56274,0
27780,-0.492508,0.0476871,1.56707,0
27800,-0.490932,0.0581422,1.57223,0
27820,-0.489368,0.0684446,1.57862,0
27840,-0.488346,0.078032,1.58609,0
27860,-0.489026,0.0874248,1.59409,0
27880,-0.48926,0.0957878,1.60212,0
27900,-0.489007,0.103191,1.60939,0
27920,-0.487832,0.110045,1.61592,0
27940,-0.487567,0.117069,1.62342,0
27960,-0.488667,0.124616,1.63231,0
27980,-0.490935,0.131722,1.64103,0
28000,-0.49433,0.138535,1.64919,0
28020,-0.498196,0.145241,1.6581,0
28040,-0.50132,0.152132,1.66807,0
28060,-0.504845,0.158709,1.67828,0
28080,-0.509141,0.165066,1.68724,0
28100,-0.513592,0.171553,1.69572,0
28120,-0.516534,0.178344,1.70507,0
28140,-0.518349,0.18466,1.71317,0
28160,-0.519976,0.190103,1.71943,0
28180,-0.522421,0.195034,1.72403,0
28200,-0.524477,0.200598,1.72745,0
28220,-0.525756,0.206705,1.73021,0
28240,-0.526137,0.212504,1.73185,0
28260,-0.52636,0.21788,1.73232,0
28280,-0.525619,0.222807,1.73249,0
28300,-0.525023,0.227261,1.73256,0
28320,-0.525304,0.230963,1.7325,0
28340,-0.526532,0.23436,1.73227,0
28360,-0.527752,0.237388,1.73193,0
28380,-0.528975,0.240327,1.73198,0
28400,-0.53013,0.242311,1.73216,0
28420,-0.531244,0.243752,1.732,0
28440,-0.532708,0.244517,1.73158,0
28460,-0.534087,0.245052,1.73136,0
28480,-0.534702,0.245541,1.73123,0
28500,-0.535036,0.245781,1.73128,0
28520,-0.535466,0.246026,1.73172,0
28540,-0.535824,0.246351,1.73237,0
28560,-0.536028,0.246863,1.7334,0
28580,-0.537012,0.247455,1.73452,0
28600,-0.537705,0.248021,1.73523,0
28620,-0.538107,0.248284,1.73568,0
28640,-0.537937,0.248689,1.73621,0
28660,-0.537473,0.249061,1.73709,0
28680,-0.536714,0.2494,1.73831,0
28700,-0.536705,0.249685,1.73993,0
28720,-0.53715,0.249968,1.74266,0
28740,-0.537411,0.250029,1.74623,0
28760,-0.537873,0.249607,1.74992,0
28780,-0.539091,0.249394,1.75435,0
28800,-0.540516,0.248728,1.75917,0
28820,-0.541983,0.247801,1.76442,0
28840,-0.543213,0.246978,1.77006,0
28860,-0.544669,0.246249,1.77619,0
28880,-0.545796,0.245612,1.78311,0
28900,-0.54726,0.244101,1.79024,0
28920,-0.548359,0.242276,1.79674,0
28940,-0.54878,0.241046,1.80344,0
28960,-0.549207,0.239791,1.80999,0
28980,-0.54905,0.238484,1.8164,0
29000,-0.548638,0.237491,1.8225,0
29020,-0.547739,0.2364,1.82788,0
29040,-0.547465,0.235728,1.83276,0
29060,-0.548305,0.237641,1.83729,0
29080,-0.550454,0.239767,1.83867,0
29100,-0.550807,0.23924,1.83819,0
29120,-0.548978,0.238763,1.83886,0
29140,-0.549344,0.239173,1.84066,0
29160,-0.552033,0.237812,1.8431,0
29180,-0.554446,0.233784,1.84431,0
29200,-0.551526,0.228875,1.84506,0
29220,-0.546972,0.22624,1.8486,0
29240,-0.546591,0.226501,1.85426,0
29260,-0.548472,0.225779,1.85996,0
29280,-0.548171,0.222602,1.86411,0
29300,-0.545267,0.219761,1.86612,0
29320,-0.542806,0.219955,1.86791,0
29340,-0.543481,0.221086,1.8695,0
29360,-0.54714,0.219636,1.86978,0
29370,-0.550975,0.216754,1.8693,0
29390,-0.551903,0.216219,1.8676,0
29410,-0.551121,0.219593,1.86625,0
29430,-0.551575,0.22484,1.86409,0
29450,-0.554415,0.228505,1.861,0
29470,-0.555212,0.23047,1.85829,0
29490,-0.553346,0.232739,1.85545,0
29510,-0.55229,0.234063,1.85166,0
29530,-0.550214,0.233707,1.84957,0
29550,-0.549934,0.233391,1.84776,0
29570,-0.550803,0.233223,1.84605,0
29590,-0.550609,0.234314,1.84585,0
29610,-0.550948,0.236766,1.84538,0
29630,-0.55117,0.237932,1.84461,0
29650,-0.550233,0.238336,1.84562,0
29670,-0.549477,0.240061,1.84659,0
29690,-0.548669,0.242252,1.84626,0
29710,-0.547236,0.244141,1.84546,0
29730,-0.545555,0.244795,1.84495,0
29750,-0.543318,0.243218,1.84432,0
29770,-0.54216,0.239332,1.8419,0
29790,-0.541505,0.23454,1.83834,0
29810,-0.541428,0.229317,1.8357,0
29830,-0.540363,0.224184,1.83482,0
29850,-0.540145,0.219482,1.83432,0
29870,-0.539687,0.214932,1.832,0
29890,-0.540698,0.21158,1.82645,0
29910,-0.541701,0.208582,1.82024,0
29930,-0.542522,0.205078,1.81582,0
29950,-0.54131,0.201205,1.81333,0
29970,-0.539891,0.198289,1.81148,0
29990,-0.539163,0.195896,1.8099,0
30010,-0.538946,0.194269,1.80841,0
30030,-0.538498,0.193049,1.80721,0
30050,-0.538114,0.19299,1.80626,0
30070,-0.537233,0.194167,1.80543,0
30090,-0.536381,0.19601,1.80471,0
30110,-0.535392,0.197428,1.80383,0
30130,-0.534433,0.199068,1.80248,0
30150,-0.532838,0.200721,1.80117,0
30170,-0.530979,0.202287,1.80003,0
30190,-0.529354,0.203892,1.79918,0
30210,-0.527973,0.205486,1.79842,0
30230,-0.526951,0.206585,1.79739,0
30250,-0.526127,0.20783,1.79615,0
30270,-0.525238,0.208963,1.7949,0
30290,-0.524718,0.210478,1.79375,0
30310,-0.524494,0.212311,1.79276,0
30330,-0.524113,0.21442,1.79175,0
30350,-0.523828,0.216625,1.79075,0
30370,-0.524195,0.219058,1.78925,0
30390,-0.525107,0.221915,1.78778,0
30410,-0.525851,0.225262,1.78646,0
30430,-0.526385,0.228971,1.78526,0
30450,-0.526555,0.232665,1.78419,0
30470,-0.526705,0.236105,1.78253,0
30490,-0.527419,0.240091,1.78068,0
30510,-0.527989,0.244353,1.77882,0
30530,-0.527892,0.249238,1.77734,0
30550,-0.527671,0.254893,1.77576,0
30570,-0.528342,0.260853,1.77415,0
30590,-0.52961,0.266772,1.77208,0
30610,-0.530885,0.272912,1.77018,0
30630,-0.530983,0.279761,1.76779,0
30650,-0.531839,0.28691,1.76552,0
30670,-0.532618,0.294924,1.76379,0
30690,-0.533553,0.303444,1.76273,0
30710,-0.534754,0.312347,1.76219,0
30730,-0.536868,0.32077,1.76182,0
30750,-0.539761,0.328585,1.76043,0
30770,-0.541621,0.336607,1.7593,0
30790,-0.541202,0.344387,1.75907,0
30810,-0.540442,0.351412,1.75889,0
30830,-0.53979,0.3578,1.75836,0
30850,-0.539548,0.363636,1.75756,0
30870,-0.538137,0.369003,1.75766,0
30890,-0.536672,0.374131,1.75847,0
30910,-0.536532,0.378945,1.75846,0
30930,-0.536974,0.383588,1.75764,0
30950,-0.536824,0.387894,1.75592,0
30970,-0.535416,0.392291,1.75384,0
30990,-0.532917,0.395407,1.75078,0
31010,-0.52982,0.401733,1.74994,0
31030,-0.525102,0.408044,1.74983,0
31050,-0.519203,0.414649,1.75008,0
31070,-0.515131,0.421109,1.74955,0
31090,-0.513157,0.426736,1.74886,0
31110,-0.511626,0.429452,1.74957,0
31130,-0.507409,0.431262,1.75109,0
31150,-0.50251,0.434114,1.75215,0
31170,-0.500135,0.43727,1.75196,0
31190,-0.499533,0.439855,1.75173,0
31210,-0.498277,0.442139,1.75209,0
31230,-0.495736,0.444921,1.7526,0
31250,-0.493166,0.447796,1.75352,0
31270,-0.491824,0.44996,1.75414,0
31290,-0.490563,0.451403,1.75447,0
31310,-0.489907,0.452461,1.75469,0
31330,-0.490926,0.453563,1.75481,0
31350,-0.492797,0.45489,1.75498,0
31370,-0.494206,0.456915,1.75494,0
31390,-0.495548,0.458833,1.75487,0
31410,-0.497019,0.460417,1.75417,0
31430,-0.497048,0.462006,1.75398,0
31450,-0.49682,0.46394,1.75381,0
31470,-0.497133,0.465969,1.7537,0
31490,-0.49827,0.467517,1.75339,0
31510,-0.499458,0.468859,1.7533,0
31530,-0.500543,0.470143,1.7534,0
31550,-0.502259,0.471019,1.7536,0
31570,-0.503492,0.472022,1.75392,0
31590,-0.505168,0.473152,1.75409,0
31610,-0.506774,0.474174,1.75424,0
31630,-0.508431,0.475326,1.75418,0
31650,-0.510496,0.476444,1.75374,0
31670,-0.512762,0.477242,1.75306,0
31690,-0.514874,0.477853,1.75279,0
31710,-0.51582,0.478831,1.75247,0
31730,-0.515835,0.479012,1.75247,0
31750,-0.515698,0.479094,1.75248,0
31770,-0.514296,0.479362,1.75259,0
31790,-0.511314,0.479271,1.75259,0
31810,-0.508421,0.478758,1.75235,0
31830,-0.505607,0.478191,1.75188,0
31850,-0.503008,0.477957,1.75148,0
31870,-0.500628,0.477552,1.75131,0
31890,-0.498469,0.47702,1.75157,0
31910,-0.494853,0.476661,1.75261,0
31930,-0.490573,0.476635,1.75388,0
31950,-0.486837,0.476701,1.7552,0
31970,-0.483108,0.476809,1.75671,0
31990,-0.480132,0.47713,1.75789,0
32010,-0.478616,0.477325,1.75846,0
32030,-0.477884,0.477044,1.75885,0
32050,-0.476812,0.477202,1.75903,0
32070,-0.475282,0.476917,1.75955,0
32090,-0.474139,0.476074,1.75944,0
32110,-0.472944,0.475398,1.75893,0
32130,-0.472028,0.474904,1.75863,0
32150,-0.470988,0.474673,1.75835,0
32170,-0.470916,0.474769,1.75877,0
32190,-0.470764,0.475078,1.75967,0
32210,-0.469903,0.475672,1.7614,0
32230,-0.468578,0.476625,1.76337,0
32250,-0.468311,0.477626,1.76493,0
32270,-0.469286,0.478094,1.76545,0
32290,-0.469864,0.478184,1.76546,0
32310,-0.46977,0.478055,1.76502,0
32330,-0.470498,0.477652,1.7648,0
32350,-0.4718,0.477294,1.76441,0
32370,-0.472474,0.477812,1.76493,0
32390,-0.473662,0.478654,1.7657,0
32410,-0.475755,0.479266,1.76608,0
32430,-0.476855,0.479432,1.76638,0
32450,-0.47783,0.479561,1.76665,0
32470,-0.479617,0.479373,1.76628,0
32490,-0.481015,0.478896,1.7657,0
32510,-0.481405,0.47859,1.7657,0
32530,-0.48216,0.47821,1.76592,0
32550,-0.483016,0.477846,1.76575,0
32570,-0.483573,0.477574,1.76577,0
32590,-0.483682,0.477679,1.76577,0
32610,-0.483926,0.477959,1.76561,0
32630,-0.483487,0.477832,1.76577,0
32650,-0.482393,0.477667,1.76613,0
32660,-0.482393,0.477667,1.76613,0
32680,-0.482101,0.477896,1.76613,0
32700,-0.48086,0.478017,1.76628,0
32720,-0.480039,0.477946,1.76648,0
32740,-0.48026,0.477815,1.7669,0
32760,-0.48148,0.477585,1.76739,0
32780,-0.482836,0.47753,1.76772,0
32800,-0.485665,0.475831,1.76824,0
32820,-0.488618,0.474725,1.76883,0
32840,-0.49172,0.474572,1.76948,0
32860,-0.495718,0.474608,1.76997,0
32880,-0.499634,0.474525,1.7707,0
32900,-0.502703,0.474943,1.7714,0
32920,-0.5046,0.475205,1.77157,0
32940,-0.504005,0.475309,1.7713,0
32960,-0.502385,0.474975,1.77071,0
32980,-0.50144,0.474403,1.76952,0
33000,-0.501597,0.474044,1.76817,0
33020,-0.502071,0.47344,1.76706,0
33040,-0.502689,0.472722,1.76642,0
33060,-0.502748,0.472652,1.76644,0
33080,-0.502156,0.472803,1.76731,0
33100,-0.501283,0.473484,1.76899,0
33120,-0.500747,0.474326,1.77033,0
33140,-0.501314,0.474407,1.77061,0
33160,-0.501278,0.474245,1.77038,0
33180,-0.499637,0.474145,1.77,0
33200,-0.497763,0.474204,1.76965,0
33220,-0.495919,0.474381,1.76933,0
33240,-0.494364,0.474999,1.76987,0
33260,-0.492855,0.474984,1.77067,0
33280,-0.492088,0.47475,1.77126,0
33300,-0.492059,0.474463,1.77191,0
33320,-0.491864,0.474825,1.77235,0
33340,-0.492296,0.47503,1.77284,0
33360,-0.493219,0.475541,1.77315,0
33380,-0.494408,0.476013,1.77349,0
33400,-0.495094,0.476379,1.77377,0
33420,-0.4957,0.476454,1.77403,0
33440,-0.497016,0.476454,1.77391,0
33460,-0.499082,0.476371,1.77339,0
33480,-0.500809,0.476385,1.77308,0
33500,-0.502753,0.476778,1.77303,0
33520,-0.504114,0.47729,1.7734,0
33540,-0.505252,0.478051,1.77416,0
33560,-0.506812,0.47863,1.77498,0
33580,-0.507993,0.479478,1.77534,0
33600,-0.508608,0.479693,1.77541,0
33620,-0.509362,0.479826,1.77546,0
33640,-0.510926,0.479592,1.77469,0
33660,-0.512848,0.479109,1.77415,0
33680,-0.513836,0.478492,1.77399,0
33700,-0.513843,0.478626,1.77379,0
33720,-0.513913,0.478738,1.77381,0
33740,-0.514012,0.478663,1.77381,0
33760,-0.514122,0.478768,1.77381,0
33780,-0.513258,0.478907,1.77352,0
33800,-0.511789,0.478635,1.7734,0
33820,-0.510093,0.478997,1.77437,0
33840,-0.508439,0.479441,1.77494,0
33860,-0.50702,0.479728,1.7755,0
33880,-0.505828,0.479767,1.77566,0
33900,-0.504625,0.48022,1.77602,0
33920,-0.503503,0.48075,1.77596,0
33940,-0.503128,0.481278,1.77614,0
33960,-0.503088,0.481284,1.77616,0
33980,-0.502429,0.481625,1.77613,0
34000,-0.50315,0.480832,1.77549,0
34020,-0.504687,0.480147,1.7751,0
34040,-0.505004,0.479688,1.7749,0
34060,-0.504879,0.478883,1.7744,0
34080,-0.504726,0.478265,1.77392,0
34100,-0.504878,0.478669,1.77396,0
34120,-0.50596,0.47959,1.77431,0
34140,-0.507667,0.480439,1.77536,0
34160,-0.507805,0.481478,1.777,0
34180,-0.506504,0.482651,1.7787,0
34200,-0.505085,0.483241,1.77933,0
34220,-0.503531,0.483438,1.77965,0
34240,-0.501237,0.483253,1.77904,0
34260,-0.499407,0.48215,1.7775,0
34280,-0.499064,0.479978,1.77515,0
34300,-0.499278,0.478349,1.77349,0
34320,-0.498227,0.478097,1.77318,0
34340,-0.497441,0.47823,1.7738,0
34360,-0.496096,0.47846,1.77507,0
34380,-0.493642,0.478932,1.77691,0
34400,-0.490909,0.480156,1.77901,0
34420,-0.490321,0.481592,1.7806,0
34440,-0.492139,0.482599,1.78081,0
34460,-0.493311,0.482929,1.78066,0
34480,-0.492392,0.482972,1.78104,0
34500,-0.492293,0.483048,1.78104,0
34520,-0.493524,0.483308,1.78091,0
34540,-0.495827,0.483243,1.78062,0
34550,-0.497112,0.483084,1.78026,0
34570,-0.499232,0.482757,1.77976,0
34590,-0.50215,0.482389,1.77904,0
34610,-0.505134,0.482087,1.77814,0
34630,-0.507092,0.481769,1.77782,0
34650,-0.507203,0.481875,1.77782,0
34670,-0.507059,0.48191,1.77765,0
34690,-0.507064,0.481956,1.77784,0
34710,-0.507076,0.482137,1.77784,0
34730,-0.507142,0.482419,1.77811,0
34750,-0.507044,0.482494,1.77811,0
34770,-0.508011,0.482326,1.7786,0
34790,-0.507971,0.482332,1.77862,0
34810,-0.507021,0.482942,1.77877,0
34830,-0.507791,0.482493,1.77835,0
34850,-0.50912,0.482418,1.7776,0
34870,-0.508857,0.483356,1.77783,0
34890,-0.508163,0.483963,1.77846,0
34910,-0.508163,0.483963,1.77846,0
34930,-0.507485,0.484291,1.77869,0
34950,-0.505949,0.484804,1.77882,0
34970,-0.504505,0.484892,1.7787,0
34990,-0.504307,0.484738,1.77863,0
35010,-0.504302,0.484692,1.77844,0
35030,-0.504454,0.485312,1.77892,0
35050,-0.505486,0.485209,1.77924,0
35070,-0.506621,0.484862,1.77929,0
35090,-0.506818,0.484496,1.77885,0
35110,-0.50645,0.48371,1.77856,0
35130,-0.505191,0.483681,1.77889,0
35150,-0.503863,0.48406,1.77971,0
35170,-0.5029,0.48454,1.78101,0
35190,-0.502579,0.485048,1.78236,0
35210,-0.502411,0.485746,1.7833,0
35230,-0.502149,0.48635,1.78398,0
35250,-0.502363,0.486732,1.78423,0
35270,-0.503048,0.486541,1.78381,0
35290,-0.503217,0.486362,1.78338,0
35310,-0.503043,0.485975,1.7831,0
35330,-0.503919,0.485802,1.78294,0
35350,-0.505637,0.48551,1.78283,0
35370,-0.507095,0.485391,1.7825,0
35390,-0.506741,0.485306,1.78271,0
35410,-0.506315,0.48502,1.78329,0
35430,-0.507094,0.484923,1.78313,0
35450,-0.508099,0.484578,1.78257,0
35470,-0.507923,0.48419,1.78229,0
35490,-0.507598,0.484297,1.78224,0
35510,-0.508271,0.483923,1.78182,0
35530,-0.508444,0.483195,1.78139,0
35550,-0.506493,0.48279,1.78144,0
35570,-0.504322,0.482084,1.78188,0
35590,-0.50277,0.481215,1.78263,0
35610,-0.500465,0.480805,1.78354,0
35630,-0.496054,0.481201,1.785,0
35650,-0.491052,0.481529,1.78691,0
35670,-0.48638,0.481442,1.78881,0
35690,-0.483042,0.481676,1.7904,0
35710,-0.481148,0.482385,1.79186,0
35730,-0.481148,0.482423,1.793,0
35750,-0.481152,0.481693,1.79298,0
35770,-0.482367,0.480259,1.7927,0
35790,-0.483144,0.479434,1.79251,0
35810,-0.48447,0.479106,1.79282,0
35830,-0.485941,0.478531,1.79284,0
35850,-0.48711,0.478349,1.79313,0
35870,-0.489711,0.478769,1.79336,0
35890,-0.49338,0.478391,1.79432,0
35910,-0.493475,0.477015,1.79558,0
35930,-0.492356,0.47426,1.79624,0
35950,-0.494784,0.470151,1.79643,0
35970,-0.501481,0.461421,1.79574,0
35990,-0.510569,0.447366,1.79458,0
36010,-0.51895,0.434104,1.79307,0
36030,-0.523654,0.415194,1.79291,0
36050,-0.521563,0.393323,1.7929,0
36070,-0.517462,0.369771,1.79465,0
36090,-0.515262,0.343544,1.79755,0
36110,-0.517462,0.314018,1.79964,0
36130,-0.522088,0.282191,1.80228,0
36150,-0.526992,0.248522,1.80659,0
36170,-0.53009,0.215155,1.81245,0
36190,-0.533165,0.182661,1.82005,0
36210,-0.537084,0.15132,1.82971,0
36230,-0.542999,0.120506,1.84083,0
36250,-0.550709,0.0914508,1.85109,0
36270,-0.559702,0.0629282,1.86074,0
36290,-0.569419,0.0358403,1.86941,0
36310,-0.577598,0.0119455,1.87932,0
36330,-0.584926,-0.00891149,1.89113,0
36350,-0.593188,-0.0266793,1.90203,0
36370,-0.602078,-0.0404964,1.91233,0
36390,-0.61239,-0.0522045,1.92204,0
36410,-0.62438,-0.0636444,1.93142,0
36430,-0.635142,-0.0745881,1.93883,0
36450,-0.645517,-0.084094,1.94487,0
36470,-0.656937,-0.0933769,1.95236,0
36490,-0.666433,-0.104234,1.95924,0
36510,-0.673598,-0.115643,1.96424,0
36530,-0.680208,-0.126217,1.96914,0
36550,-0.688035,-0.136483,1.97595,0
36570,-0.698206,-0.147274,1.98365,0
36590,-0.708239,-0.157475,1.99112,0
36610,-0.716628,-0.164967,1.99929,0
36630,-0.726393,-0.170985,2.00993,0
36650,-0.73405,-0.177007,2.02068,0
36670,-0.738898,-0.182487,2.02965,0
36690,-0.744261,-0.187569,2.03801,0
36710,-0.750102,-0.193077,2.04591,0
36730,-0.754881,-0.199896,2.05193,0
36750,-0.755926,-0.206714,2.05563,0
36770,-0.754766,-0.213351,2.05931,0
36790,-0.754271,-0.220495,2.06347,0
36810,-0.754905,-0.228331,2.06822,0
36830,-0.757179,-0.235398,2.07296,0
36850,-0.761364,-0.241396,2.07727,0
36870,-0.765573,-0.247979,2.08066,0
36890,-0.766086,-0.255047,2.08383,0
36910,-0.769033,-0.260708,2.0877,0
36930,-0.773804,-0.266216,2.08921,0
36950,-0.776282,-0.272335,2.08989,0
36970,-0.780118,-0.275225,2.09162,0
36990,-0.786282,-0.278926,2.09428,0
37010,-0.790631,-0.282608,2.095,0
37030,-0.793075,-0.284809,2.09576,0
37050,-0.797205,-0.286059,2.09716,0
37070,-0.803091,-0.28694,2.09792,0
37090,-0.809397,-0.286032,2.09881,0
37110,-0.815087,-0.284984,2.10161,0
37130,-0.81813,-0.283949,2.10499,0
37150,-0.821346,-0.282862,2.10757,0
37170,-0.820436,-0.282173,2.10906,0
37190,-0.81829,-0.281222,2.11136,0
37210,-0.81717,-0.280124,2.11334,0
37230,-0.815689,-0.278297,2.11409,0
37250,-0.813536,-0.274746,2.11525,0
37270,-0.81071,-0.270696,2.11705,0
37290,-0.808051,-0.269114,2.11858,0
37310,-0.80678,-0.269854,2.11947,0
37330,-0.804205,-0.269467,2.11977,0
37350,-0.800628,-0.269316,2.11998,0
37370,-0.798858,-0.270723,2.12106,0
37390,-0.797754,-0.27245,2.12167,0
37410,-0.797686,-0.273502,2.12154,0
37430,-0.799373,-0.274136,2.12165,0
37450,-0.80057,-0.275165,2.12195,0
37470,-0.802395,-0.276475,2.12244,0
37490,-0.803664,-0.277538,2.12335,0
37510,-0.805081,-0.279063,2.12498,0
37530,-0.806827,-0.281149,2.12676,0
37550,-0.80881,-0.282228,2.12814,0
37570,-0.809932,-0.282676,2.12925,0
37590,-0.810625,-0.282813,2.13135,0
37610,-0.811291,-0.283009,2.13326,0
37630,-0.811217,-0.282586,2.13429,0
37650,-0.809146,-0.281629,2.13468,0
37670,-0.806159,-0.28113,2.13541,0
37690,-0.804504,-0.281239,2.13561,0
37710,-0.802629,-0.281178,2.13557,0
37730,-0.799575,-0.281923,2.13551,0
37750,-0.796254,-0.282965,2.13513,0
37770,-0.794548,-0.283493,2.13531,0
37790,-0.794262,-0.283914,2.1359,0
37810,-0.795213,-0.284362,2.13673,0
37820,-0.797362,-0.285109,2.13728,0
37840,-0.799631,-0.285714,2.13813,0
37860,-0.801141,-0.286082,2.13859,0
37880,-0.802744,-0.286119,2.13837,0
37900,-0.803704,-0.286096,2.13801,0
37920,-0.804201,-0.286362,2.13807,0
37940,-0.804753,-0.28653,2.1381,0
37960,-0.805059,-0.286883,2.13806,0
37980,-0.804369,-0.287683,2.13735,0
38000,-0.802534,-0.288644,2.13684,0
38020,-0.801097,-0.289513,2.13723,0
38040,-0.800418,-0.290566,2.13767,0
38060,-0.799811,-0.291134,2.13756,0
38080,-0.799018,-0.291522,2.13735,0
38100,-0.798266,-0.291636,2.13766,0
38120,-0.79807,-0.291579,2.13846,0
38140,-0.798012,-0.29104,2.13858,0
38160,-0.798281,-0.289787,2.13905,0
38180,-0.799321,-0.288801,2.14024,0
38200,-0.800221,-0.287824,2.1409,0
38220,-0.800575,-0.286731,2.14147,0
38240,-0.800315,-0.285838,2.14204,0
38260,-0.800395,-0.285853,2.14306,0
38280,-0.800755,-0.286672,2.14334,0
38300,-0.799841,-0.287475,2.14323,0
38320,-0.799188,-0.288101,2.14396,0
38340,-0.799871,-0.288791,2.14453,0
38360,-0.800671,-0.289335,2.145,0
38380,-0.801329,-0.289499,2.14544,0
38400,-0.802929,-0.289949,2.14647,0
38420,-0.804169,-0.290803,2.14709,0
38440,-0.804893,-0.291311,2.14694,0
38460,-0.805477,-0.291416,2.14716,0
38480,-0.806114,-0.291936,2.14777,0
38500,-0.806885,-0.292561,2.14766,0
38520,-0.807464,-0.292614,2.14794,0
38540,-0.807468,-0.292592,2.14833,0
38560,-0.807468,-0.292592,2.14833,0
38580,-0.808054,-0.293358,2.14806,0
38600,-0.807502,-0.293926,2.14708,0
38620,-0.807344,-0.294347,2.14666,0
38640,-0.807845,-0.294857,2.14713,0
38660,-0.807564,-0.294711,2.14737,0
38680,-0.807565,-0.294296,2.14826,0
38700,-0.808224,-0.294725,2.14871,0
38720,-0.808318,-0.294937,2.14877,0
38740,-0.808285,-0.294263,2.14953,0
38760,-0.808334,-0.294113,2.14955,0
38780,-0.806667,-0.292786,2.14908,0
38800,-0.804829,-0.290971,2.14969,0
38820,-0.805453,-0.290141,2.15093,0
38840,-0.80732,-0.289745,2.15153,0
38860,-0.809142,-0.289891,2.15161,0
38880,-0.809366,-0.289987,2.15231,0
38900,-0.80839,-0.290033,2.15369,0
38920,-0.806517,-0.290406,2.15491,0
38940,-0.805073,-0.291305,2.15593,0
38960,-0.804451,-0.292164,2.15645,0
38980,-0.80507,-0.293379,2.15678,0
39000,-0.805031,-0.294022,2.15757,0
39020,-0.803897,-0.293858,2.15863,0
39040,-0.802308,-0.29426,2.16012,0
39060,-0.800955,-0.294887,2.16181,0
39080,-0.799649,-0.295244,2.16404,0
39100,-0.79849,-0.295933,2.16636,0
39120,-0.796571,-0.296719,2.16825,0
39140,-0.795185,-0.298045,2.16994,0
39160,-0.792616,-0.298881,2.17186,0
39180,-0.790472,-0.299142,2.17361,0
39200,-0.788148,-0.299936,2.1747,0
39220,-0.786044,-0.301531,2.1762,0
39240,-0.783362,-0.304032,2.17757,0
39260,-0.779742,-0.305811,2.1793,0
39280,-0.775434,-0.308065,2.18104,0
39300,-0.771812,-0.310972,2.18261,0
39320,-0.769413,-0.313198,2.18458,0
39340,-0.768154,-0.314947,2.18674,0
39360,-0.765695,-0.316331,2.1889,0
39380,-0.762177,-0.317367,2.19118,0
39400,-0.758641,-0.318053,2.19318,0
39420,-0.754977,-0.318583,2.19424,0
39440,-0.750568,-0.319079,2.19407,0
39460,-0.744975,-0.319534,2.19386,0
39480,-0.739364,-0.320357,2.1941,0
39500,-0.735516,-0.321597,2.19421,0
39520,-0.731583,-0.32256,2.19334,0
39540,-0.727292,-0.323822,2.19285,0
39560,-0.724075,-0.32543,2.1933,0
39580,-0.722176,-0.327511,2.19336,0
39600,-0.721376,-0.329617,2.19317,0
39620,-0.719929,-0.332006,2.19474,0
39640,-0.719007,-0.334819,2.1969,0
39660,-0.719127,-0.338496,2.19849,0
39680,-0.719381,-0.342602,2.19896,0
39700,-0.719593,-0.346449,2.20027,0
39710,-0.719957,-0.35021,2.20185,0
39730,-0.721539,-0.354205,2.20297,0
39750,-0.723391,-0.358541,2.20324,0
39770,-0.724283,-0.364088,2.20387,0
39790,-0.723208,-0.370519,2.20417,0
39810,-0.723234,-0.37767,2.20398,0
39830,-0.725776,-0.385439,2.20455,0
39850,-0.730009,-0.39264,2.20592,0
39870,-0.735862,-0.398032,2.20696,0
39890,-0.74172,-0.400973,2.20617,0
39910,-0.745,-0.402292,2.20509,0
39930,-0.747147,-0.402037,2.20335,0
39950,-0.752491,-0.399467,2.20081,0
39970,-0.756587,-0.396247,2.19727,0
39990,-0.759092,-0.391488,2.19274,0
40010,-0.760777,-0.384766,2.18761,0
40030,-0.762666,-0.377393,2.18226,0
40050,-0.764712,-0.369891,2.1771,0
40070,-0.767833,-0.362682,2.17401,0
40090,-0.770656,-0.356925,2.17191,0
40110,-0.76832,-0.352408,2.16907,0
40130,-0.766028,-0.349348,2.16778,0
40150,-0.765798,-0.347938,2.16779,0
40170,-0.766017,-0.346803,2.16733,0
40190,-0.766543,-0.34575,2.16682,0
40210,-0.766933,-0.344955,2.16618,0
40230,-0.766543,-0.344866,2.16595,0
40250,-0.765348,-0.343315,2.16614,0
40270,-0.763715,-0.341811,2.16675,0
40290,-0.761971,-0.341994,2.16517,0
40310,-0.761004,-0.3416,2.16199,0
40330,-0.761529,-0.340159,2.1596,0
40350,-0.761368,-0.339588,2.15841,0
40370,-0.759439,-0.339151,2.15729,0
40390,-0.75697,-0.338923,2.15602,0
40410,-0.755294,-0.338831,2.155,0
40430,-0.75459,-0.339023,2.15499,0
40450,-0.753994,-0.339856,2.15557,0
40470,-0.753421,-0.340695,2.15587,0
40490,-0.753252,-0.340611,2.15674,0
40510,-0.753874,-0.340483,2.1584,0
40530,-0.753624,-0.340196,2.16092,0
40550,-0.752734,-0.340812,2.16343,0
40570,-0.751647,-0.342587,2.16544,0
40590,-0.751204,-0.344585,2.16772,0
40610,-0.751197,-0.345818,2.17012,0
40630,-0.751685,-0.346251,2.17257,0
40650,-0.751982,-0.346724,2.17498,0
40670,-0.751225,-0.347204,2.17739,0
40690,-0.749785,-0.347093,2.18021,0
40710,-0.747204,-0.347164,2.18219,0
40730,-0.74387,-0.346819,2.18346,0
40750,-0.740724,-0.34654,2.18494,0
40770,-0.73716,-0.346872,2.18619,0
40790,-0.734555,-0.347673,2.18681,0
40810,-0.731393,-0.349169,2.18693,0
40830,-0.728097,-0.350553,2.18772,0
40850,-0.725976,-0.351768,2.18878,0
40870,-0.725135,-0.353194,2.18932,0
40890,-0.726198,-0.355885,2.18914,0
40910,-0.726433,-0.358084,2.1894,0
40930,-0.726955,-0.359885,2.19079,0
40950,-0.726574,-0.361668,2.19241,0
40970,-0.725773,-0.362085,2.19372,0
40990,-0.7246,-0.362214,2.19447,0
41010,-0.723539,-0.361915,2.19356,0
41030,-0.721609,-0.360702,2.19187,0
41050,-0.717667,-0.359918,2.19095,0
41070,-0.712543,-0.360328,2.19067,0
41090,-0.708469,-0.362469,2.19008,0
41110,-0.706401,-0.365974,2.18835,0
41130,-0.704692,-0.370261,2.18682,0
41150,-0.704845,-0.375631,2.18856,0
41170,-0.706193,-0.381102,2.19088,0
41190,-0.708782,-0.385856,2.19212,0
41210,-0.712764,-0.390066,2.19322,0
41230,-0.715509,-0.393971,2.1944,0
41250,-0.717856,-0.396024,2.19535,0
41270,-0.720273,-0.397165,2.19456,0
41290,-0.724753,-0.395782,2.19179,0
41310,-0.726607,-0.392066,2.18875,0
41330,-0.729108,-0.387663,2.18579,0
41350,-0.729059,-0.384088,2.18036,0
41370,-0.726895,-0.379485,2.17329,0
41390,-0.726338,-0.374165,2.16717,0
41410,-0.727514,-0.369263,2.16333,0
41430,-0.729284,-0.365604,2.16052,0
41450,-0.72944,-0.362854,2.15826,0
41470,-0.728263,-0.360729,2.15688,0
41490,-0.726631,-0.359983,2.15649,0
41510,-0.724687,-0.359153,2.15712,0
41530,-0.723839,-0.358162,2.15941,0
41550,-0.725619,-0.359973,2.16062,0
41570,-0.725071,-0.36105,2.16003,0
41590,-0.723422,-0.359608,2.16145,0
41610,-0.723713,-0.359203,2.16395,0
41630,-0.724267,-0.360215,2.16491,0
41650,-0.725486,-0.360321,2.16533,0
41670,-0.725553,-0.360595,2.16423,0
41690,-0.722702,-0.360396,2.16195,0
41710,-0.720716,-0.359359,2.1617,0
41730,-0.721415,-0.358301,2.16148,0
41750,-0.724044,-0.355836,2.15907,0
41770,-0.725473,-0.352093,2.15607,0
41790,-0.723391,-0.348375,2.1565,0
41810,-0.718265,-0.345976,2.15805,0
41830,-0.710582,-0.344739,2.1589,0
41850,-0.703801,-0.342058,2.16069,0
41870,-0.700261,-0.340693,2.16211,0
41890,-0.697143,-0.339375,2.16327,0
41910,-0.692904,-0.339866,2.16424,0
41930,-0.686682,-0.340613,2.16425,0
41950,-0.680969,-0.340626,2.16497,0
41970,-0.676126,-0.34323,2.16579,0
41990,-0.671588,-0.347171,2.16561,0
42010,-0.668053,-0.351656,2.16489,0
42030,-0.666562,-0.357,2.16593,0
42050,-0.668243,-0.363665,2.16836,0
42070,-0.671397,-0.369901,2.1704,0
42090,-0.675739,-0.375726,2.17173,0
42110,-0.679933,-0.380844,2.17272,0
42130,-0.682744,-0.384408,2.17386,0
42150,-0.68585,-0.388009,2.17559,0
42170,-0.690284,-0.391805,2.17668,0
42190,-0.693828,-0.394816,2.17642,0
42210,-0.696343,-0.395384,2.17578,0
42230,-0.698396,-0.394641,2.17619,0
42250,-0.700976,-0.394094,2.17589,0
42270,-0.704817,-0.392242,2.1741,0
42290,-0.707491,-0.387259,2.17389,0
42310,-0.707989,-0.381193,2.1732,0
42330,-0.707231,-0.37854,2.17013,0
42350,-0.705656,-0.374967,2.16767,0
42370,-0.705573,-0.369666,2.16785,0
42390,-0.705022,-0.36525,2.16891,0
42410,-0.703224,-0.362169,2.1696,0
42430,-0.700225,-0.360329,2.17084,0
42450,-0.697047,-0.359185,2.17291,0
42470,-0.694555,-0.358858,2.17531,0
42490,-0.692836,-0.359823,2.17741,0
42510,-0.692003,-0.361236,2.17966,0
42530,-0.689746,-0.36237,2.18099,0
42550,-0.685268,-0.363105,2.18144,0
42570,-0.679167,-0.364006,2.18234,0
42590,-0.674107,-0.365269,2.18338,0
42610,-0.670206,-0.365402,2.18459,0
42630,-0.668874,-0.365677,2.18624,0
42650,-0.665906,-0.367091,2.1867,0
42670,-0.661739,-0.36786,2.1878,0
42690,-0.656237,-0.368907,2.18855,0
42710,-0.651622,-0.370291,2.18795,0
42730,-0.647111,-0.372335,2.18619,0
42750,-0.642527,-0.374282,2.18496,0
42770,-0.637898,-0.376287,2.18381,0
42790,-0.633841,-0.378967,2.18148,0
42810,-0.630197,-0.382407,2.17992,0
42830,-0.627157,-0.38616,2.17939,0
42850,-0.625276,-0.388447,2.17819,0
42870,-0.623657,-0.390142,2.17572,0
42890,-0.621846,-0.392165,2.17347,0
42910,-0.62055,-0.395718,2.17204,0
42930,-0.620176,-0.399577,2.17016,0
42950,-0.61955,-0.402721,2.16833,0
42970,-0.619193,-0.405599,2.16804,0
42990,-0.619346,-0.408223,2.16851,0
43000,-0.619483,-0.411038,2.16743,0
43020,-0.618814,-0.412841,2.16459,0
43040,-0.617524,-0.414903,2.16127,0
43060,-0.615817,-0.416383,2.15664,0
43080,-0.61329,-0.417959,2.15109,0
43100,-0.609591,-0.419771,2.14354,0
43120,-0.60441,-0.422228,2.1344,0
43140,-0.599862,-0.425169,2.1246,0
43160,-0.594277,-0.428336,2.11296,0
43180,-0.588068,-0.430374,2.10017,0
43200,-0.582542,-0.432851,2.08695,0
43220,-0.576356,-0.435133,2.07198,0
43240,-0.568963,-0.438473,2.05553,0
43260,-0.564422,-0.442832,2.04208,0
43280,-0.561134,-0.448458,2.03172,0
43300,-0.559631,-0.455682,2.02504,0
43320,-0.560149,-0.465074,2.02033,0
43340,-0.564142,-0.473402,2.01745,0
43360,-0.570486,-0.480216,2.01729,0
43380,-0.579648,-0.485031,2.02118,0
43400,-0.589427,-0.488184,2.02784,0
43420,-0.599906,-0.488246,2.0372,0
43440,-0.612718,-0.485547,2.04997,0
43460,-0.630377,-0.48318,2.06446,0
43480,-0.651949,-0.478381,2.07839,0
43500,-0.67341,-0.472321,2.09398,0
43520,-0.695477,-0.463743,2.11017,0
43540,-0.717075,-0.451681,2.12492,0
43560,-0.734964,-0.438598,2.13951,0
43580,-0.75165,-0.425429,2.15244,0
43600,-0.768587,-0.414223,2.16246,0
43620,-0.781756,-0.405053,2.16775,0
43640,-0.787508,-0.397179,2.16839,0
43660,-0.788833,-0.390508,2.16832,0
43680,-0.791641,-0.386444,2.17132,0
43700,-0.793962,-0.384673,2.17463,0
43720,-0.792662,-0.384349,2.17553,0
43740,-0.79105,-0.384427,2.17496,0
43760,-0.790161,-0.385702,2.1743,0
43780,-0.789378,-0.38664,2.17438,0
43800,-0.790578,-0.387405,2.1757,0
43820,-0.794299,-0.388265,2.17809,0
43840,-0.797957,-0.388473,2.18043,0
43860,-0.800267,-0.387517,2.18179,0
43880,-0.803048,-0.384884,2.1833,0
43900,-0.806435,-0.381788,2.18574,0
43920,-0.809216,-0.379463,2.18749,0
43940,-0.811165,-0.376826,2.18732,0
43960,-0.813062,-0.373739,2.18754,0
43980,-0.81413,-0.371382,2.18763,0
44000,-0.813665,-0.369348,2.18681,0
44020,-0.812946,-0.366172,2.18595,0
44040,-0.812907,-0.363816,2.18499,0
44060,-0.811707,-0.362128,2.18324,0
44080,-0.809058,-0.359462,2.18115,0
44100,-0.80788,-0.357215,2.17758,0
44120,-0.806881,-0.35454,2.17444,0
44140,-0.807593,-0.350631,2.17427,0
44160,-0.806484,-0.347573,2.17475,0
44180,-0.804036,-0.345662,2.17516,0
44200,-0.800737,-0.344518,2.17568,0
44220,-0.796744,-0.343867,2.17682,0
44240,-0.792301,-0.343497,2.17806,0
44260,-0.787548,-0.344309,2.18002,0
44280,-0.781878,-0.346557,2.18129,0
44300,-0.774335,-0.349893,2.18172,0
44320,-0.765836,-0.35338,2.18164,0
44340,-0.759153,-0.356983,2.18194,0
44360,-0.752829,-0.361488,2.18194,0
44380,-0.746711,-0.365544,2.18188,0
44400,-0.740196,-0.369529,2.1809,0
44420,-0.733383,-0.373505,2.17796,0
44440,-0.725996,-0.377697,2.17349,0
44460,-0.718182,-0.382746,2.16876,0
44480,-0.710266,-0.389539,2.16347,0
44500,-0.702001,-0.395953,2.15627,0
44520,-0.692213,-0.402455,2.14776,0
44540,-0.679904,-0.410639,2.13686,0
44560,-0.668668,-0.420422,2.1249,0
44580,-0.657724,-0.429362,2.1094,0
44600,-0.646706,-0.437375,2.09236,0
44620,-0.635314,-0.447543,2.07474,0
44640,-0.625149,-0.457231,2.05604,0
44660,-0.615933,-0.464779,2.03673,0
44680,-0.607762,-0.471316,2.01711,0
44700,-0.598658,-0.479624,1.99502,0
44720,-0.588969,-0.487408,1.97089,0
44740,-0.580654,-0.494255,1.94801,0
44760,-0.573024,-0.501011,1.92679,0
44780,-0.565217,-0.506654,1.90542,0
44800,-0.558097,-0.512375,1.88458,0
44820,-0.551994,-0.51805,1.86516,0
44840,-0.547179,-0.52188,1.84746,0
44860,-0.544236,-0.52591,1.83251,0
44880,-0.541875,-0.528296,1.82191,0
44890,-0.539862,-0.528804,1.8177,0
44910,-0.540774,-0.527534,1.81754,0
44930,-0.543407,-0.525256,1.81854,0
44950,-0.546886,-0.5241,1.81793,0
44970,-0.551077,-0.522671,1.81988,0
44990,-0.556394,-0.518313,1.82632,0
45010,-0.563685,-0.512205,1.83785,0
45030,-0.5709,-0.506752,1.84944,0
45050,-0.578941,-0.500101,1.86203,0
45070,-0.587393,-0.491946,1.87638,0
45090,-0.59482,-0.48327,1.89014,0
45110,-0.601258,-0.475454,1.9026,0
45130,-0.608215,-0.468291,1.91493,0
45150,-0.614354,-0.461797,1.92594,0
45170,-0.618613,-0.454699,1.93631,0
45190,-0.622251,-0.447934,1.94697,0
45210,-0.625303,-0.44218,1.95676,0
45230,-0.629111,-0.437006,1.9655,0
45250,-0.633758,-0.432256,1.97424,0
45270,-0.638802,-0.428666,1.98399,0
45290,-0.643865,-0.426323,1.99393,0
45310,-0.650145,-0.424874,2.00492,0
45330,-0.658406,-0.424466,2.01709,0
45350,-0.668285,-0.424345,2.03179,0
45370,-0.679571,-0.424551,2.04747,0
45390,-0.692429,-0.423883,2.06335,0
45410,-0.707181,-0.422036,2.07894,0
45430,-0.722647,-0.418304,2.094,0
45450,-0.737677,-0.413025,2.10892,0
45470,-0.752091,-0.406495,2.12255,0
45490,-0.768656,-0.397855,2.13432,0
45510,-0.783467,-0.38871,2.14445,0
45530,-0.796054,-0.37868,2.15285,0
45550,-0.807664,-0.368517,2.15984,0
45570,-0.817603,-0.357729,2.16567,0
45590,-0.825001,-0.347324,2.17202,0
45610,-0.831519,-0.338572,2.17928,0
45630,-0.838302,-0.332181,2.18707,0
45650,-0.84275,-0.327363,2.19362,0
45670,-0.843347,-0.32357,2.19884,0
45690,-0.843051,-0.320381,2.20329,0
45710,-0.844663,-0.318542,2.2084,0
45730,-0.84635,-0.318311,2.21233,0
45750,-0.848492,-0.317949,2.21628,0
45770,-0.849857,-0.317842,2.21929,0
45790,-0.849229,-0.318055,2.22019,0
45810,-0.8485,-0.317463,2.22116,0
45830,-0.849962,-0.316035,2.22329,0
45850,-0.852113,-0.314008,2.22491,0
45870,-0.852618,-0.312972,2.22435,0
45890,-0.851713,-0.313928,2.22207,0
45910,-0.851318,-0.313721,2.22235,0
45930,-0.851762,-0.311018,2.22411,0
45950,-0.851651,-0.309934,2.22354,0
45970,-0.85029,-0.310159,2.22136,0
45990,-0.847888,-0.308348,2.22004,0
46010,-0.845831,-0.30667,2.21969,0
46030,-0.844069,-0.307304,2.21889,0
46050,-0.842038,-0.308178,2.21722,0
46070,-0.83793,-0.3075,2.21557,0
46090,-0.831979,-0.306276,2.2144,0
46110,-0.824738,-0.306118,2.21406,0
46130,-0.816383,-0.305923,2.21396,0
46150,-0.808315,-0.308763,2.21375,0
46170,-0.7976,-0.313695,2.21302,0
46190,-0.785439,-0.316004,2.2121,0
46210,-0.773135,-0.320347,2.21256,0
46230,-0.761941,-0.326719,2.21235,0
46250,-0.750297,-0.333465,2.21135,0
46270,-0.73929,-0.341918,2.21017,0
46290,-0.730272,-0.35138,2.20811,0
46310,-0.723284,-0.360743,2.20841,0
46330,-0.716805,-0.371336,2.21348,0
46350,-0.71302,-0.383742,2.21723,0
46370,-0.712406,-0.398126,2.21913,0
46390,-0.715226,-0.408526,2.2227,0
46410,-0.720178,-0.416283,2.22845,0
46430,-0.725502,-0.424525,2.23309,0
46450,-0.73142,-0.430783,2.23484,0
46470,-0.738537,-0.432148,2.23663,0
46490,-0.744977,-0.429915,2.23881,0
46510,-0.751001,-0.427495,2.24056,0
46530,-0.755049,-0.427456,2.23988,0
46550,-0.758862,-0.427528,2.2381,0
46570,-0.764177,-0.423804,2.23822,0
46590,-0.769822,-0.419645,2.24038,0
46610,-0.775852,-0.416538,2.24209,0
46630,-0.780353,-0.413202,2.24246,0
46650,-0.784385,-0.409095,2.24268,0
46670,-0.787914,-0.40506,2.24334,0
46690,-0.791924,-0.401416,2.24465,0
46710,-0.795162,-0.398239,2.24484,0
46730,-0.79759,-0.393785,2.24303,0
46750,-0.797786,-0.38849,2.24176,0
46770,-0.796695,-0.382839,2.24086,0
46790,-0.79586,-0.377832,2.2387,0
46810,-0.795823,-0.372585,2.23564,0
46830,-0.797307,-0.365866,2.23392,0
46850,-0.796793,-0.35949,2.23252,0
46870,-0.79562,-0.35391,2.23167,0
46890,-0.794557,-0.350547,2.23171,0
46910,-0.792189,-0.34672,2.23194,0
46930,-0.789493,-0.341388,2.23243,0
46950,-0.785927,-0.339312,2.23185,0
46970,-0.782353,-0.339848,2.23032,0
46990,-0.779026,-0.338556,2.23106,0
47010,-0.775563,-0.33683,2.23224,0
47030,-0.769743,-0.338332,2.23068,0
47050,-0.763047,-0.341848,2.22869,0
47070,-0.755927,-0.345857,2.22785,0
47090,-0.746452,-0.350312,2.22695,0
47110,-0.738335,-0.351994,2.22677,0
47130,-0.733396,-0.354838,2.22817,0
47150,-0.727968,-0.359569,2.22799,0
47170,-0.721723,-0.363357,2.22763,0
47190,-0.713756,-0.367628,2.22636,0
47210,-0.704938,-0.3709,2.22484,0
47230,-0.696366,-0.3748,2.22454,0
47250,-0.68811,-0.380349,2.22278,0
47270,-0.680401,-0.386204,2.21925,0
47290,-0.671185,-0.392316,2.21488,0
47310,-0.660806,-0.396609,2.21123,0
47330,-0.652638,-0.399954,2.20906,0
47350,-0.647625,-0.403978,2.20883,0
47370,-0.643111,-0.408239,2.20835,0
47390,-0.641192,-0.411441,2.20861,0
47410,-0.642355,-0.415605,2.2111,0
47430,-0.646834,-0.418953,2.21564,0
47450,-0.653645,-0.421623,2.21984,0
47470,-0.659341,-0.424825,2.22161,0
47490,-0.666343,-0.426569,2.22327,0
47510,-0.674503,-0.427663,2.22801,0
47530,-0.681549,-0.428643,2.23326,0
47550,-0.685503,-0.430589,2.2346,0
47570,-0.691699,-0.431574,2.23458,0
47590,-0.698521,-0.430462,2.23552,0
47610,-0.704869,-0.42782,2.23923,0
47630,-0.708694,-0.428155,2.24183,0
47650,-0.711192,-0.430259,2.24145,0
47670,-0.714908,-0.431177,2.24067,0
47690,-0.718208,-0.429937,2.24076,0
47710,-0.720351,-0.427206,2.24243,0
47730,-0.723233,-0.425639,2.24399,0
47750,-0.726278,-0.424226,2.2441,0
47770,-0.730673,-0.421544,2.24518,0
47790,-0.736505,-0.419153,2.24725,0
47810,-0.740198,-0.417027,2.24842,0
47830,-0.742187,-0.415621,2.24857,0
47850,-0.743452,-0.413321,2.24855,0
47870,-0.745261,-0.410836,2.24978,0
47890,-0.747237,-0.409914,2.25131,0
47910,-0.748026,-0.409148,2.25143,0
47930,-0.748586,-0.407353,2.25128,0
47950,-0.748843,-0.40565,2.25158,0
47970,-0.749169,-0.404111,2.25245,0
47990,-0.750136,-0.403622,2.25274,0
48010,-0.751581,-0.403532,2.2528,0
48030,-0.752287,-0.402923,2.25305,0
48050,-0.752167,-0.402113,2.25313,0
48070,-0.752167,-0.402113,2.25313,0
48090,-0.752564,-0.402614,2.25339,0
48110,-0.752495,-0.40245,2.2534,0
48130,-0.751697,-0.40252,2.25239,0
48150,-0.749759,-0.402642,2.25052,0
48170,-0.74799,-0.402341,2.2494,0
48180,-0.746479,-0.402212,2.24912,0
48200,-0.745598,-0.402489,2.24847,0
48220,-0.744632,-0.402065,2.24668,0
48240,-0.743801,-0.401219,2.24673,0
48260,-0.744292,-0.401192,2.24795,0
48280,-0.744788,-0.401056,2.24814,0
48300,-0.744722,-0.400839,2.24821,0
48320,-0.743935,-0.399783,2.24865,0
48340,-0.74429,-0.399427,2.24989,0
48360,-0.743227,-0.398626,2.25034,0
48380,-0.742309,-0.397138,2.25064,0
48400,-0.742385,-0.396285,2.25078,0
48420,-0.741555,-0.394535,2.25108,0
48440,-0.740331,-0.392341,2.25194,0
48460,-0.739542,-0.390544,2.25273,0
48480,-0.737224,-0.390222,2.25261,0
48500,-0.734125,-0.390659,2.25151,0
48520,-0.730325,-0.391648,2.25022,0
48540,-0.725889,-0.39261,2.2491,0
48560,-0.72194,-0.394403,2.24871,0
48580,-0.718057,-0.394918,2.24836,0
48600,-0.714757,-0.395042,2.24849,0
48620,-0.713455,-0.396443,2.24927,0
48640,-0.712475,-0.398191,2.25059,0
48660,-0.711568,-0.399996,2.25174,0
48680,-0.710471,-0.40121,2.25307,0
48700,-0.709631,-0.402775,2.25533,0
48720,-0.708171,-0.404964,2.25754,0
48740,-0.706584,-0.406657,2.2591,0
48760,-0.705422,-0.408155,2.26073,0
48780,-0.704882,-0.409257,2.26267,0
48800,-0.704072,-0.410672,2.26457,0
48820,-0.702433,-0.412209,2.26585,0
48840,-0.700226,-0.412916,2.26679,0
48860,-0.698151,-0.413203,2.26777,0
48880,-0.696247,-0.413246,2.2693,0
48900,-0.694213,-0.413484,2.27018,0
48920,-0.691762,-0.413978,2.27093,0
48940,-0.689825,-0.414818,2.27192,0
48960,-0.687988,-0.415983,2.27276,0
48980,-0.685521,-0.417017,2.27336,0
49000,-0.682111,-0.418281,2.27342,0
49020,-0.679034,-0.418873,2.27391,0
49040,-0.676839,-0.419194,2.27506,0
49060,-0.675146,-0.420241,2.27649,0
49080,-0.673621,-0.421153,2.27714,0
49100,-0.672981,-0.420891,2.27759,0
49120,-0.672127,-0.420242,2.27908,0
49140,-0.671134,-0.421186,2.28128,0
49160,-0.670268,-0.422773,2.28328,0
49180,-0.66962,-0.424356,2.28509,0
49200,-0.667901,-0.426534,2.28609,0
49220,-0.664758,-0.429273,2.28676,0
49240,-0.661755,-0.432061,2.28719,0
49260,-0.658126,-0.434854,2.28575,0
49280,-0.655326,-0.438154,2.28354,0
49300,-0.653127,-0.442324,2.28228,0
49320,-0.651851,-0.445993,2.28239,0
49340,-0.650438,-0.449459,2.28177,0
49360,-0.650005,-0.453092,2.28099,0
49380,-0.650338,-0.456264,2.28046,0
49400,-0.650792,-0.458989,2.28058,0
49420,-0.650935,-0.461695,2.28039,0
49440,-0.65078,-0.464517,2.27946,0
49460,-0.650509,-0.467698,2.27807,0
49480,-0.649862,-0.470474,2.27637,0
49500,-0.647574,-0.473047,2.27438,0
49520,-0.64471,-0.475602,2.2722,0
49540,-0.642019,-0.478223,2.26931,0
49560,-0.639351,-0.481621,2.26666,0
49580,-0.636408,-0.485138,2.26337,0
49600,-0.632956,-0.489771,2.25977,0
49620,-0.629441,-0.494565,2.25611,0
49640,-0.625192,-0.500075,2.25196,0
49660,-0.620295,-0.505723,2.24756,0
49680,-0.614703,-0.510735,2.24223,0
49700,-0.608668,-0.51552,2.23627,0
49720,-0.603209,-0.519793,2.23009,0
49740,-0.599184,-0.522254,2.22441,0
49760,-0.594782,-0.52394,2.21827,0
49780,-0.590311,-0.525956,2.21158,0
49800,-0.585068,-0.527758,2.20407,0
49820,-0.579512,-0.528818,2.19673,0
49840,-0.57352,-0.530102,2.18924,0
49860,-0.567526,-0.5322,2.18112,0
49880,-0.561325,-0.533984,2.173,0
49900,-0.554603,-0.535081,2.16463,0
49920,-0.547934,-0.535579,2.15679,0
49940,-0.542263,-0.537184,2.14918,0
49960,-0.536761,-0.538701,2.14135,0
49980,-0.531071,-0.539576,2.1336,0
50000,-0.525205,-0.540415,2.1265,0
50020,-0.518887,-0.541711,2.11944,0
50040,-0.510137,-0.542522,2.10993,0
50060,-0.499264,-0.5428,2.09819,0
50080,-0.490175,-0.542609,2.08849,0
50090,-0.484632,-0.542131,2.08195,0
50110,-0.480042,-0.541757,2.07588,0
50130,-0.474116,-0.540965,2.0687,0
50150,-0.468754,-0.539214,2.06293,0
50170,-0.465366,-0.537086,2.06063,0
50190,-0.463538,-0.535013,2.06072,0
50210,-0.462465,-0.533532,2.06195,0
50230,-0.461457,-0.531744,2.06342,0
50250,-0.461108,-0.529815,2.06564,0
50270,-0.462238,-0.527664,2.06976,0
50290,-0.465585,-0.525397,2.0762,0
50310,-0.46939,-0.523828,2.08312,0
50330,-0.47309,-0.522614,2.08941,0
50350,-0.47876,-0.521432,2.0968,0
50370,-0.486793,-0.520787,2.10682,0
50390,-0.495592,-0.52048,2.11842,0
50410,-0.504272,-0.520728,2.13014,0
50430,-0.513627,-0.521802,2.14088,0
50450,-0.523658,-0.520706,2.14968,0
50470,-0.535188,-0.516858,2.15907,0
50490,-0.54796,-0.512781,2.16957,0
50510,-0.561114,-0.509444,2.17896,0
50530,-0.572377,-0.505844,2.18475,0
50550,-0.58303,-0.498546,2.18818,0
50570,-0.596221,-0.492477,2.19402,0
50590,-0.610219,-0.488432,2.20214,0
50610,-0.623777,-0.486208,2.20987,0
50630,-0.635882,-0.48468,2.21529,0
50650,-0.645789,-0.483163,2.21899,0
50670,-0.655361,-0.481783,2.22266,0
50690,-0.666594,-0.480486,2.22702,0
50710,-0.678777,-0.478313,2.23042,0
50730,-0.689567,-0.47287,2.23231,0
50750,-0.697406,-0.467596,2.23523,0
50770,-0.704194,-0.462996,2.2393,0
50790,-0.712505,-0.458951,2.24349,0
50810,-0.71831,-0.454798,2.24534,0
50830,-0.720558,-0.450582,2.24631,0
50850,-0.721438,-0.446745,2.24764,0
50870,-0.723499,-0.443133,2.24959,0
50890,-0.726013,-0.438994,2.25096,0
50910,-0.72795,-0.434026,2.25253,0
50930,-0.730182,-0.428379,2.25468,0
50950,-0.731579,-0.422427,2.2562,0
50970,-0.733535,-0.416666,2.25771,0
50990,-0.735809,-0.410386,2.25908,0
51010,-0.737882,-0.402388,2.26001,0
51030,-0.738939,-0.394631,2.26168,0
51050,-0.73936,-0.388782,2.2634,0
51070,-0.738086,-0.384093,2.26441,0
51090,-0.735567,-0.379837,2.26493,0
51110,-0.733788,-0.375988,2.26538,0
51130,-0.733577,-0.37386,2.26631,0
51150,-0.734981,-0.372381,2.26749,0
51170,-0.735638,-0.370771,2.26893,0
51190,-0.734589,-0.369636,2.27082,0
51210,-0.732354,-0.369257,2.27259,0
51230,-0.729532,-0.368707,2.27427,0
51250,-0.727499,-0.368233,2.27557,0
51270,-0.725504,-0.368662,2.27639,0
51290,-0.723561,-0.371355,2.27861,0
51310,-0.720321,-0.374257,2.28195,0
51330,-0.716887,-0.37697,2.28583,0
51350,-0.714238,-0.380079,2.28916,0
51370,-0.711966,-0.384409,2.29137,0
51390,-0.709432,-0.388326,2.29389,0
51410,-0.707793,-0.393203,2.29722,0
51430,-0.706376,-0.397941,2.30076,0
51450,-0.704718,-0.403499,2.30447,0
51470,-0.702536,-0.408898,2.30794,0
51490,-0.699837,-0.41366,2.31124,0
51510,-0.697648,-0.41877,2.31466,0
51530,-0.695099,-0.424649,2.31681,0
51550,-0.692617,-0.429741,2.31904,0
51570,-0.688932,-0.434411,2.32114,0
51590,-0.684637,-0.438953,2.32247,0
51610,-0.680118,-0.443114,2.32227,0
51630,-0.675649,-0.445824,2.32214,0
51650,-0.671615,-0.447623,2.32305,0
51670,-0.666395,-0.449606,2.32311,0
51690,-0.660381,-0.45192,2.32215,0
51710,-0.655178,-0.453254,2.32116,0
51730,-0.651233,-0.455093,2.32141,0
51750,-0.647445,-0.458398,2.32242,0
51770,-0.643415,-0.460101,2.32287,0
51790,-0.639509,-0.462365,2.32348,0
51810,-0.63669,-0.465638,2.32392,0
51830,-0.634731,-0.468094,2.32511,0
51850,-0.632839,-0.470032,2.32659,0
51870,-0.630233,-0.472264,2.32676,0
51890,-0.626737,-0.474653,2.3259,0
51910,-0.623261,-0.476159,2.32487,0
51930,-0.61947,-0.478203,2.32307,0
51950,-0.616413,-0.480501,2.32056,0
51970,-0.612281,-0.483768,2.31709,0
51990,-0.60794,-0.487041,2.31305,0
52010,-0.604137,-0.490114,2.30941,0
52030,-0.601027,-0.493763,2.30507,0
52050,-0.598338,-0.497968,2.29966,0
52070,-0.595294,-0.501384,2.294,0
52090,-0.59173,-0.504521,2.28832,0
52110,-0.58908,-0.507364,2.28316,0
52130,-0.587101,-0.510144,2.27859,0
52150,-0.584992,-0.513043,2.27354,0
52170,-0.583052,-0.515552,2.26841,0
52190,-0.581392,-0.516279,2.26375,0
52210,-0.580233,-0.516333,2.26075,0
52230,-0.579584,-0.516118,2.25842,0
52250,-0.57896,-0.515713,2.25583,0
52270,-0.577047,-0.514899,2.25252,0
52290,-0.57492,-0.514959,2.24918,0
52310,-0.572613,-0.515688,2.24536,0
52330,-0.569488,-0.515535,2.24054,0
52350,-0.566143,-0.514946,2.23589,0
52370,-0.562784,-0.514796,2.23194,0
52390,-0.559211,-0.515625,2.22794,0
52410,-0.554803,-0.517257,2.22278,0
52430,-0.550347,-0.518195,2.21744,0
52450,-0.54758,-0.519194,2.21359,0
52470,-0.545337,-0.520306,2.2108,0
52490,-0.54302,-0.522294,2.20795,0
52510,-0.541255,-0.523938,2.20486,0
52530,-0.5396,-0.524716,2.20198,0
52550,-0.538064,-0.525927,2.20008,0
52570,-0.537384,-0.527403,2.19893,0
52590,-0.53667,-0.529071,2.19804,0
52610,-0.536152,-0.531319,2.19731,0
52630,-0.535805,-0.533667,2.19697,0
52650,-0.536166,-0.535721,2.19736,0
52670,-0.537792,-0.537458,2.19923,0
52690,-0.53924,-0.539086,2.20174,0
52710,-0.54213,-0.540065,2.2058,0
52730,-0.546117,-0.541121,2.21099,0
52750,-0.551553,-0.540779,2.21712,0
52770,-0.558019,-0.540291,2.22464,0
52790,-0.563533,-0.539845,2.23187,0
52810,-0.569947,-0.539391,2.23915,0
52830,-0.577916,-0.537026,2.24569,0
52850,-0.587472,-0.533953,2.25373,0
52870,-0.59705,-0.531165,2.26245,0
52890,-0.605775,-0.527964,2.26936,0
52910,-0.615055,-0.523965,2.2748,0
52930,-0.624416,-0.519876,2.27847,0
52950,-0.635198,-0.513369,2.28128,0
52970,-0.647302,-0.507371,2.2831,0
52990,-0.657073,-0.501777,2.28419,0
53010,-0.668128,-0.496286,2.28673,0
53030,-0.680375,-0.489877,2.29018,0
53050,-0.691313,-0.482236,2.29314,0
53070,-0.701338,-0.475534,2.29487,0
53090,-0.711121,-0.468575,2.29487,0
53110,-0.721098,-0.461666,2.29533,0
53130,-0.730805,-0.454099,2.29692,0
53150,-0.740476,-0.446113,2.29835,0
53170,-0.747846,-0.438786,2.29882,0
53190,-0.752734,-0.432276,2.29845,0
53210,-0.756121,-0.426065,2.29816,0
53230,-0.758429,-0.420376,2.2983,0
53250,-0.75747,-0.415518,2.29787,0
53270,-0.756899,-0.411484,2.29778,0
53290,-0.758313,-0.408201,2.29872,0
53310,-0.7601,-0.405252,2.29975,0
53330,-0.760897,-0.402704,2.30052,0
53350,-0.761456,-0.400955,2.30128,0
53370,-0.760565,-0.400078,2.30155,0
53380,-0.758058,-0.399111,2.30211,0
53400,-0.757256,-0.39851,2.30343,0
53420,-0.757653,-0.398739,2.30486,0
53440,-0.758736,-0.399199,2.30682,0
53460,-0.760148,-0.400093,2.30832,0
53480,-0.760895,-0.40091,2.30826,0
53500,-0.761023,-0.400165,2.30875,0
53520,-0.760875,-0.398618,2.31035,0
53540,-0.760952,-0.398514,2.31043,0
53560,-0.761267,-0.398354,2.30898,0
53580,-0.76242,-0.398374,2.30801,0
53600,-0.76254,-0.397254,2.30782,0
53620,-0.761991,-0.395533,2.30792,0
53640,-0.761633,-0.393656,2.30792,0
53660,-0.762482,-0.39218,2.30831,0
53680,-0.76371,-0.390606,2.30879,0
53700,-0.764139,-0.389441,2.30899,0
53720,-0.7634,-0.388573,2.30942,0
53740,-0.762368,-0.387701,2.31044,0
53760,-0.760656,-0.387514,2.31174,0
53780,-0.75875,-0.388287,2.31322,0
53800,-0.756648,-0.390286,2.31451,0
53820,-0.754993,-0.392776,2.31558,0
53840,-0.753425,-0.394686,2.31681,0
53860,-0.752337,-0.396564,2.31917,0
53880,-0.751011,-0.398828,2.32232,0
53900,-0.749373,-0.400975,2.32441,0
53920,-0.747117,-0.402306,2.32552,0
53940,-0.74454,-0.403698,2.32703,0
53960,-0.742389,-0.405767,2.32999,0
53980,-0.740677,-0.408692,2.33221,0
54000,-0.740081,-0.411831,2.33392,0
54020,-0.739549,-0.415858,2.33686,0
54040,-0.738001,-0.42016,2.33986,0
54060,-0.735699,-0.42544,2.34273,0
54080,-0.734477,-0.431106,2.34558,0
54100,-0.734708,-0.436742,2.34914,0
54120,-0.735416,-0.442568,2.35367,0
54140,-0.736165,-0.448286,2.35808,0
54160,-0.736977,-0.454067,2.36226,0
54180,-0.73882,-0.459086,2.36689,0
54200,-0.740383,-0.463798,2.37189,0
54220,-0.741495,-0.468074,2.37622,0
54240,-0.741075,-0.471956,2.37909,0
54260,-0.73992,-0.475859,2.38157,0
54280,-0.738301,-0.479656,2.38373,0
54300,-0.737279,-0.482023,2.38544,0
54320,-0.735727,-0.484504,2.3869,0
54340,-0.7333,-0.487702,2.38774,0
54360,-0.731069,-0.490977,2.38899,0
54380,-0.728632,-0.493075,2.3892,0
54400,-0.725575,-0.494821,2.3883,0
54420,-0.721159,-0.49569,2.38635,0
54440,-0.715782,-0.496555,2.38351,0
54460,-0.710433,-0.495755,2.38032,0
54480,-0.706249,-0.494953,2.37701,0
54500,-0.700901,-0.494047,2.37212,0
54520,-0.693458,-0.493581,2.36533,0
54540,-0.684407,-0.492306,2.35682,0
54560,-0.676506,-0.490675,2.34825,0
54580,-0.668089,-0.489577,2.33908,0
54600,-0.661156,-0.490029,2.33049,0
54620,-0.654567,-0.491228,2.32053,0
54640,-0.648053,-0.493405,2.30946,0
54660,-0.642072,-0.495638,2.29816,0
54680,-0.635302,-0.497375,2.28657,0
54700,-0.628599,-0.499268,2.27627,0
54720,-0.623334,-0.501595,2.26699,0
54740,-0.619532,-0.50478,2.25828,0
54760,-0.615942,-0.508003,2.25016,0
54780,-0.613793,-0.511182,2.24265,0
54800,-0.612514,-0.514418,2.23645,0
54820,-0.612185,-0.516929,2.23212,0
54840,-0.614103,-0.518467,2.23035,0
54860,-0.616827,-0.518589,2.23186,0
54880,-0.621345,-0.517389,2.23611,0
54900,-0.626703,-0.517159,2.24156,0
54920,-0.632556,-0.517675,2.24768,0
54940,-0.638715,-0.517407,2.2539,0
54960,-0.644982,-0.515576,2.26197,0
54980,-0.651071,-0.514372,2.27112,0
55000,-0.657442,-0.5132,2.2804,0
55020,-0.663025,-0.511994,2.28657,0
55040,-0.668109,-0.50915,2.29127,0
55060,-0.6767,-0.506525,2.29779,0
55080,-0.687242,-0.503963,2.30645,0
55100,-0.697003,-0.501522,2.31391,0
55120,-0.704086,-0.49688,2.31779,0
55140,-0.711578,-0.493224,2.32049,0
55160,-0.722197,-0.489605,2.3241,0
55180,-0.734223,-0.485736,2.32882,0
55200,-0.743117,-0.482022,2.33161,0
55220,-0.749465,-0.477001,2.33219,0
55240,-0.755362,-0.471902,2.33403,0
55260,-0.760258,-0.467507,2.336,0
55280,-0.762497,-0.46292,2.33695,0
55290,-0.764549,-0.458389,2.33736,0
55310,-0.767349,-0.455483,2.33663,0
55330,-0.770217,-0.453286,2.33597,0
55350,-0.774441,-0.450839,2.3358,0
55370,-0.778793,-0.448286,2.33503,0
55390,-0.78176,-0.445408,2.33416,0
55410,-0.782008,-0.441418,2.33351,0
55430,-0.782392,-0.436731,2.33357,0
55450,-0.782577,-0.433134,2.3328,0
55470,-0.783479,-0.428362,2.33222,0
55490,-0.787224,-0.423031,2.33331,0
55510,-0.789537,-0.418175,2.3334,0
55530,-0.789923,-0.413576,2.3325,0
55550,-0.790147,-0.40807,2.33122,0
55570,-0.792346,-0.402704,2.33051,0
55590,-0.793896,-0.398024,2.33069,0
55610,-0.79235,-0.39506,2.3308,0
55630,-0.788776,-0.39319,2.33131,0
55650,-0.786502,-0.391983,2.33182,0
55670,-0.785149,-0.390678,2.3328,0
55690,-0.78607,-0.389983,2.33578,0
55710,-0.788041,-0.390572,2.33944,0
55730,-0.788676,-0.392009,2.34185,0
55750,-0.788519,-0.393011,2.34427,0
55770,-0.788258,-0.394015,2.34695,0
55790,-0.788131,-0.395766,2.34954,0
55810,-0.788084,-0.398326,2.35155,0
55830,-0.786786,-0.400885,2.35312,0
55850,-0.785,-0.402753,2.35506,0
55870,-0.783874,-0.404464,2.35738,0
55890,-0.784242,-0.406395,2.35993,0
55910,-0.785172,-0.408805,2.36174,0
55930,-0.786212,-0.410838,2.3635,0
55950,-0.786801,-0.412607,2.36628,0
55970,-0.786604,-0.414434,2.36899,0
55990,-0.786193,-0.415998,2.37119,0
56010,-0.784551,-0.416978,2.37246,0
56030,-0.782364,-0.41738,2.37384,0
56050,-0.77966,-0.418862,2.37455,0
56070,-0.77568,-0.421208,2.37389,0
56090,-0.772207,-0.423075,2.37389,0
56110,-0.769704,-0.424461,2.37472,0
56130,-0.767652,-0.425787,2.37548,0
56150,-0.7663,-0.427208,2.37586,0
56170,-0.764506,-0.428639,2.37637,0
56190,-0.763256,-0.429855,2.37728,0
56210,-0.762169,-0.431248,2.37893,0
56230,-0.760916,-0.432954,2.37997,0
56250,-0.759546,-0.43529,2.37987,0
56270,-0.758029,-0.437086,2.37955,0
56290,-0.756612,-0.438908,2.38027,0
56310,-0.754228,-0.441224,2.38067,0
56330,-0.750525,-0.444439,2.37879,0
56350,-0.746761,-0.446913,2.37584,0
56370,-0.743719,-0.449774,2.37354,0
56390,-0.739908,-0.452641,2.37105,0
56410,-0.735621,-0.456435,2.36712,0
56430,-0.730613,-0.460674,2.36153,0
56450,-0.725275,-0.465328,2.3556,0
56470,-0.721143,-0.470653,2.34965,0
56490,-0.716775,-0.475945,2.3429,0
56510,-0.712115,-0.480747,2.33631,0
56530,-0.70864,-0.485419,2.33118,0
56550,-0.708126,-0.490688,2.32924,0
56570,-0.709084,-0.495941,2.32962,0
56590,-0.711786,-0.500037,2.33155,0
56610,-0.717167,-0.503516,2.33475,0
56630,-0.723395,-0.505513,2.33833,0
56650,-0.730871,-0.505296,2.34347,0
56670,-0.7394,-0.504587,2.34981,0
56690,-0.746801,-0.503407,2.3556,0
56710,-0.752528,-0.500476,2.35909,0
56730,-0.756983,-0.496212,2.36082,0
56750,-0.761302,-0.49178,2.3624,0
56770,-0.766948,-0.488943,2.36558,0
56790,-0.773216,-0.485696,2.36782,0
56810,-0.778302,-0.481584,2.36894,0
56830,-0.780436,-0.477747,2.36731,0
56850,-0.781346,-0.47442,2.36523,0
56870,-0.782812,-0.471101,2.36428,0
56890,-0.783314,-0.466926,2.36271,0
56910,-0.782256,-0.462048,2.3598,0
56930,-0.779493,-0.458412,2.35575,0
56950,-0.778697,-0.454946,2.35395,0
56970,-0.781124,-0.451657,2.35538,0
56990,-0.784661,-0.449496,2.35668,0
57010,-0.787906,-0.448527,2.35676,0
57030,-0.788894,-0.448089,2.35623,0
57050,-0.787622,-0.44777,2.35568,0
57070,-0.786315,-0.44712,2.35596,0
57090,-0.785653,-0.446795,2.35594,0
57110,-0.786757,-0.446368,2.35625,0
57130,-0.788764,-0.445778,2.35574,0
57150,-0.789575,-0.44454,2.35474,0
57170,-0.78871,-0.442866,2.35409,0
57190,-0.788011,-0.441193,2.3536,0
57210,-0.788002,-0.439795,2.35301,0
57230,-0.78835,-0.438183,2.35206,0
57250,-0.788371,-0.436565,2.35128,0
57270,-0.788157,-0.434902,2.35048,0
57290,-0.78784,-0.433449,2.34965,0
57310,-0.78702,-0.432265,2.34927,0
57330,-0.786579,-0.431187,2.34868,0
57350,-0.786667,-0.430383,2.34782,0
57370,-0.78738,-0.429583,2.3473,0
57390,-0.787501,-0.428722,2.34712,0
57410,-0.787345,-0.428665,2.34704,0
57430,-0.787378,-0.428557,2.347,0
57450,-0.788324,-0.428511,2.34693,0
57470,-0.789255,-0.428083,2.34757,0
57490,-0.790182,-0.427711,2.34813,0
57510,-0.791215,-0.427768,2.34815,0
57530,-0.791245,-0.427718,2.34804,0
57550,-0.791278,-0.427611,2.348,0
57570,-0.791584,-0.426748,2.34859,0
57590,-0.791843,-0.42621,2.34972,0
57610,-0.791514,-0.426371,2.34997,0
57630,-0.79081,-0.426153,2.3497,0
57650,-0.790243,-0.42545,2.34935,0
57670,-0.790181,-0.424321,2.34957,0
57690,-0.789689,-0.423675,2.35017,0
57710,-0.788936,-0.423184,2.35065,0
57730,-0.788459,-0.422108,2.35184,0
57750,-0.788518,-0.421137,2.35299,0
57770,-0.78913,-0.420651,2.35338,0
57790,-0.788987,-0.420388,2.35389,0
57810,-0.787993,-0.420164,2.35472,0
57830,-0.787069,-0.42097,2.35656,0
57850,-0.78601,-0.421667,2.3587,0
57870,-0.785072,-0.422366,2.36009,0
57890,-0.784868,-0.423229,2.36162,0
57910,-0.784939,-0.424253,2.36395,0
57930,-0.784263,-0.425283,2.36639,0
57950,-0.783581,-0.426149,2.36796,0
57970,-0.783297,-0.426316,2.36963,0
57990,-0.783963,-0.426164,2.3724,0
58010,-0.784588,-0.426062,2.37499,0
58030,-0.784621,-0.425746,2.37655,0
58050,-0.785,-0.42478,2.37802,0
58070,-0.78524,-0.42339,2.37944,0
58090,-0.784926,-0.421679,2.38059,0
58110,-0.783845,-0.419867,2.38091,0
58130,-0.783241,-0.418109,2.38163,0
58150,-0.783237,-0.416994,2.38258,0
58170,-0.781814,-0.415837,2.38299,0
58190,-0.780027,-0.414903,2.38347,0
58210,-0.778598,-0.414231,2.38402,0
58230,-0.778144,-0.414038,2.38495,0
58250,-0.777293,-0.413837,2.38534,0
58270,-0.77618,-0.41413,2.38546,0
58290,-0.774683,-0.414472,2.38528,0
58310,-0.773339,-0.41504,2.38575,0
58330,-0.773278,-0.415373,2.38648,0
58350,-0.773317,-0.415751,2.38688,0
58370,-0.772679,-0.416897,2.38739,0
58390,-0.77169,-0.418582,2.38784,0
58410,-0.770601,-0.420107,2.38796,0
58430,-0.769799,-0.421314,2.38874,0
58450,-0.770014,-0.42278,2.39003,0
58470,-0.770354,-0.424465,2.39135,0
58490,-0.770076,-0.425934,2.39236,0
58510,-0.769835,-0.427469,2.39391,0
58530,-0.76965,-0.429561,2.39644,0
58550,-0.769491,-0.431489,2.39922,0
58570,-0.76931,-0.433041,2.40141,0
58580,-0.769812,-0.434964,2.40433,0
58600,-0.769625,-0.437119,2.40722,0
58620,-0.769649,-0.4394,2.41073,0
58640,-0.769675,-0.441567,2.41411,0
58660,-0.770737,-0.442955,2.41781,0
58680,-0.772323,-0.444709,2.42233,0
58700,-0.773554,-0.445899,2.42743,0
58720,-0.776942,-0.445976,2.43232,0
58740,-0.780503,-0.445267,2.43713,0
58760,-0.785155,-0.442883,2.44258,0
58780,-0.791837,-0.437773,2.45295,0
58800,-0.800585,-0.430501,2.46582,0
58820,-0.813474,-0.418046,2.48237,0
58840,-0.829129,-0.403249,2.50217,0
58860,-0.84364,-0.392745,2.52226,0
58880,-0.85925,-0.384896,2.54236,0
58900,-0.875377,-0.378453,2.56117,0
58920,-0.887587,-0.374483,2.57613,0
58940,-0.896369,-0.370584,2.58802,0
58960,-0.90304,-0.364322,2.59956,0
58980,-0.906659,-0.359393,2.60952,0
59000,-0.908326,-0.359069,2.61451,0
59020,-0.907632,-0.361894,2.61107,0
59040,-0.9022,-0.36369,2.60098,0
59060,-0.89405,-0.360807,2.58798,0
59080,-0.88369,-0.354681,2.57386,0
59100,-0.87156,-0.34834,2.5578,0
59120,-0.859756,-0.343612,2.54089,0
59140,-0.848028,-0.339297,2.52377,0
59160,-0.835365,-0.335021,2.50707,0
59180,-0.821612,-0.331113,2.4921,0
59200,-0.80967,-0.326987,2.48077,0
59220,-0.800218,-0.322726,2.47336,0
59240,-0.795147,-0.319015,2.46924,0
59260,-0.791124,-0.316272,2.46774,0
59280,-0.789265,-0.313641,2.46787,0
59300,-0.788773,-0.310448,2.47046,0
59320,-0.789688,-0.306523,2.47501,0
59340,-0.791247,-0.303685,2.48095,0
59360,-0.793276,-0.303523,2.48821,0
59380,-0.796388,-0.305542,2.49572,0
59400,-0.799888,-0.310157,2.50308,0
59420,-0.80218,-0.316446,2.5078,0
59440,-0.803305,-0.322788,2.50996,0
59460,-0.804168,-0.328915,2.5103,0
59480,-0.803718,-0.3346,2.50635,0
59500,-0.802534,-0.338281,2.4993,0
59520,-0.800466,-0.341383,2.49184,0
59540,-0.797597,-0.345982,2.48251,0
59560,-0.791807,-0.349638,2.47023,0
59580,-0.785857,-0.353214,2.45842,0
59600,-0.782817,-0.356465,2.44752,0
59620,-0.783418,-0.358807,2.43681,0
59640,-0.784513,-0.360823,2.42516,0
59660,-0.786339,-0.363023,2.41417,0
59680,-0.787151,-0.36567,2.40396,0
59700,-0.787666,-0.367082,2.39468,0
59720,-0.788616,-0.367716,2.38629,0
59740,-0.788227,-0.369346,2.37952,0
59760,-0.786612,-0.372059,2.37375,0
59780,-0.786052,-0.375245,2.36948,0
59800,-0.787266,-0.377735,2.3678,0
59820,-0.790026,-0.379741,2.36805,0
59840,-0.79343,-0.382224,2.36916,0
59860,-0.796661,-0.383538,2.37025,0
59880,-0.799743,-0.383776,2.37209,0
59900,-0.80285,-0.384171,2.37461,0
59920,-0.805439,-0.384724,2.37712,0
59940,-0.808776,-0.385325,2.37913,0
59960,-0.809511,-0.384936,2.38002,0
59980,-0.80936,-0.383604,2.38031,0
60000,-0.809378,-0.381307,2.38099,0
60020,-0.809067,-0.379494,2.38149,0
60040,-0.80944,-0.378375,2.38127,0
60060,-0.808607,-0.37674,2.38036,0
60080,-0.80747,-0.374624,2.37982,0
60100,-0.807299,-0.372443,2.38009,0
60120,-0.808718,-0.371043,2.38121,0
60140,-0.808868,-0.370557,2.38174,0
60160,-0.80768,-0.370037,2.38166,0
60180,-0.80634,-0.36909,2.38202,0
60200,-0.806019,-0.368767,2.38326,0
60220,-0.806173,-0.368917,2.38489,0
60240,-0.806498,-0.368853,2.38588,0
60260,-0.806217,-0.36928,2.38619,0
60280,-0.805541,-0.370403,2.3864,0
60300,-0.804002,-0.371429,2.38685,0
60320,-0.802083,-0.371877,2.38789,0
60330,-0.801636,-0.37337,2.38906,0
60360,-0.801415,-0.375502,2.38942,0
60380,-0.800802,-0.376946,2.3899,0
60400,-0.799315,-0.377501,2.39114,0
60420,-0.797639,-0.378591,2.39278,0
60440,-0.796118,-0.380108,2.39397,0
60460,-0.795932,-0.380916,2.3954,0
60470,-0.795248,-0.381305,2.39685,0
60490,-0.793455,-0.381453,2.39807,0
60510,-0.791437,-0.380917,2.3999,0
60530,-0.789445,-0.380392,2.40233,0
60550,-0.788056,-0.379325,2.40524,0
60570,-0.786487,-0.377698,2.40901,0
60590,-0.784114,-0.375315,2.41385,0
60610,-0.780541,-0.373889,2.41821,0
60630,-0.775651,-0.372474,2.42201,0
60650,-0.770927,-0.369902,2.42793,0
60670,-0.767197,-0.366676,2.43564,0
60690,-0.764733,-0.363154,2.44287,0
60710,-0.761191,-0.359524,2.44899,0
60730,-0.755509,-0.354994,2.45503,0
60750,-0.749237,-0.348639,2.46249,0
60770,-0.742534,-0.342512,2.47168,0
60790,-0.732813,-0.338101,2.47812,0
60810,-0.718567,-0.333497,2.48621,0
60830,-0.704397,-0.32953,2.50137,0
60850,-0.694039,-0.327814,2.52283,0
60870,-0.684617,-0.329007,2.54414,0
60890,-0.676518,-0.331683,2.56616,0
60910,-0.669402,-0.331416,2.58973,0
60930,-0.660796,-0.327673,2.61573,0
60950,-0.646596,-0.324185,2.64076,0
60970,-0.628973,-0.323769,2.66219,0
60990,-0.61224,-0.32358,2.68253,0
61010,-0.600607,-0.32227,2.70248,0
61030,-0.594052,-0.320279,2.72105,0
61050,-0.590509,-0.318696,2.73702,0
61070,-0.588821,-0.318216,2.7498,0
61090,-0.589318,-0.316872,2.76052,0
61110,-0.59276,-0.313491,2.77002,0
61130,-0.595429,-0.310157,2.77877,0
61150,-0.59824,-0.308239,2.78567,0
61170,-0.600712,-0.305584,2.79099,0
61190,-0.602726,-0.303913,2.79696,0
61210,-0.604877,-0.304601,2.80213,0
61230,-0.606952,-0.306823,2.80576,0
61250,-0.610792,-0.309246,2.8099,0
61270,-0.615996,-0.312633,2.81397,0
61290,-0.633923,-0.318927,2.8256,0
61310,-0.643956,-0.320866,2.83528,0
61330,-0.655704,-0.323071,2.84462,0
61340,-0.678164,-0.333366,2.85858,0
61360,-0.693403,-0.331435,2.86748,0
61380,-0.706934,-0.327886,2.8798,0
61400,-0.715698,-0.324457,2.89183,0
61420,-0.720359,-0.322011,2.89953,0
61440,-0.725212,-0.317562,2.90535,0
61460,-0.730181,-0.313662,2.91041,0
61480,-0.731643,-0.3115,2.91514,0
61500,-0.730835,-0.310793,2.91852,0
61520,-0.730763,-0.309976,2.92091,0
61540,-0.732732,-0.308224,2.92317,0
61560,-0.735528,-0.30373,2.92597,0
61580,-0.739908,-0.299488,2.92716,0
61600,-0.741719,-0.296978,2.92789,0
61620,-0.744585,-0.295695,2.93027,0
61640,-0.747615,-0.294215,2.93285,0
61660,-0.75044,-0.29401,2.93415,0
61680,-0.752645,-0.294452,2.93361,0
61700,-0.754165,-0.294989,2.93291,0
61720,-0.754398,-0.295941,2.93195,0
61740,-0.753988,-0.297493,2.92995,0
61760,-0.753012,-0.298656,2.9264,0
61780,-0.752488,-0.300068,2.92339,0
61800,-0.752264,-0.301167,2.9219,0
61820,-0.752174,-0.302031,2.92166,0
61840,-0.752992,-0.302925,2.9221,0
61860,-0.754182,-0.303462,2.92095,0
61880,-0.756995,-0.303129,2.91939,0
61900,-0.761781,-0.302084,2.91842,0
61920,-0.769135,-0.301645,2.91744,0
61940,-0.774145,-0.300625,2.91716,0
61960,-0.779086,-0.30003,2.91746,0
61980,-0.785367,-0.301215,2.91724,0
62000,-0.789531,-0.299596,2.91866,0
62020,-0.798465,-0.293608,2.92243,0
62040,-0.80482,-0.289706,2.92284,0
62060,-0.809326,-0.287963,2.92216,0
62070,-0.81095,-0.285578,2.92241,0
62090,-0.813349,-0.283027,2.92212,0
62110,-0.816027,-0.28175,2.9194,0
62130,-0.820203,-0.281381,2.91582,0
62150,-0.824661,-0.281972,2.91293,0
62170,-0.827914,-0.282154,2.91113,0
62190,-0.829736,-0.28136,2.90973,0
62210,-0.830236,-0.280888,2.90889,0
62230,-0.830433,-0.281336,2.90828,0
62250,-0.831096,-0.281408,2.90836,0
62270,-0.830283,-0.281036,2.90826,0
62290,-0.829133,-0.281225,2.90769,0
62310,-0.827135,-0.282391,2.90583,0
62330,-0.82461,-0.283505,2.90267,0
62350,-0.81991,-0.284712,2.89837,0
62370,-0.814472,-0.286137,2.89382,0
62390,-0.808843,-0.287603,2.88846,0
62410,-0.803284,-0.28844,2.88176,0
62430,-0.796274,-0.289182,2.87395,0
62450,-0.787945,-0.290112,2.86528,0
62480,-0.769613,-0.294342,2.84356,0
62500,-0.758153,-0.297,2.83052,0
62520,-0.74459,-0.300561,2.81638,0
62540,-0.732248,-0.305465,2.8022,0
62570,-0.705796,-0.31798,2.76652,0
62580,-0.690618,-0.32372,2.74748,0
62600,-0.673886,-0.331068,2.72638,0
62620,-0.65638,-0.339639,2.70401,0
62640,-0.637964,-0.347551,2.68109,0
62660,-0.618758,-0.355825,2.6569,0
62680,-0.60035,-0.364398,2.63252,0
62700,-0.582687,-0.372255,2.60911,0
62720,-0.566726,-0.379192,2.58656,0
62740,-0.553229,-0.386263,2.5666,0
62760,-0.542411,-0.394091,2.54783,0
62780,-0.533526,-0.401454,2.52963,0
62800,-0.525545,-0.408082,2.51152,0
62820,-0.516544,-0.413902,2.49531,0
62840,-0.508767,-0.419285,2.48228,0
62860,-0.5035,-0.423566,2.47148,0
62880,-0.501472,-0.426761,2.46326,0
62900,-0.502339,-0.430007,2.45721,0
62920,-0.501962,-0.433105,2.45069,0
62940,-0.500475,-0.435399,2.44384,0
62960,-0.498874,-0.437091,2.4388,0
62980,-0.497277,-0.438042,2.43547,0
63000,-0.496195,-0.438703,2.43299,0
63020,-0.495882,-0.439337,2.43017,0
63040,-0.496257,-0.439452,2.42789,0
63060,-0.496304,-0.438973,2.42607,0
63080,-0.495766,-0.438671,2.42432,0
63100,-0.494528,-0.438669,2.42235,0
63120,-0.493631,-0.438573,2.42066,0
63140,-0.492734,-0.438565,2.41821,0
63160,-0.491584,-0.438303,2.41511,0
63180,-0.489998,-0.438349,2.41169,0
63200,-0.488394,-0.438728,2.40798,0
63220,-0.488022,-0.439095,2.4039,0
63240,-0.488322,-0.438822,2.39894,0
63260,-0.489397,-0.437574,2.39275,0
63280,-0.490779,-0.435178,2.38491,0
63300,-0.492221,-0.431161,2.3757,0
63320,-0.494207,-0.424378,2.36476,0
63340,-0.495968,-0.414585,2.35076,0
63360,-0.495669,-0.400061,2.33291,0
63380,-0.495315,-0.381653,2.31401,0
63400,-0.495935,-0.358136,2.29247,0
63420,-0.498275,-0.327503,2.26994,0
63440,-0.500785,-0.296126,2.24761,0
63460,-0.50048,-0.2611,2.22432,0
63480,-0.498767,-0.222721,2.20152,0
63500,-0.503708,-0.179051,2.18086,0
63520,-0.508962,-0.129892,2.1674,0
63540,-0.514818,-0.0750192,2.15971,0
63560,-0.522469,-0.0219942,2.15151,0
63580,-0.528132,0.0277238,2.14013,0
63600,-0.533155,0.0760333,2.13008,0
63620,-0.538678,0.123563,2.12235,0
63640,-0.541998,0.169444,2.11732,0
63660,-0.543681,0.213628,2.11143,0
63680,-0.545905,0.254738,2.10449,0
63690,-0.548072,0.290916,2.09849,0
63710,-0.548141,0.323183,2.09362,0
63730,-0.545409,0.352591,2.09004,0
63750,-0.54094,0.378456,2.08605,0
63770,-0.534698,0.401928,2.08125,0
63790,-0.525906,0.421901,2.0758,0
63810,-0.513835,0.435608,2.06951,0
63830,-0.50697,0.439876,2.06225,0
63850,-0.500805,0.434404,2.06174,0
63870,-0.505626,0.42646,2.06222,0
63890,-0.513063,0.426469,2.06097,0
63910,-0.513478,0.432701,2.0615,0
63930,-0.508468,0.440907,2.0611,0
63950,-0.501159,0.44871,2.06078,0
63970,-0.494813,0.454902,2.05913,0
63990,-0.4885,0.460508,2.0564,0
64010,-0.481881,0.464178,2.053,0
64030,-0.475117,0.464927,2.0489,0
64050,-0.471104,0.463921,2.04386,0
64070,-0.469729,0.462914,2.03831,0
64090,-0.469619,0.463038,2.03595,0
64110,-0.46859,0.463223,2.03665,0
64130,-0.469413,0.464063,2.03715,0
64150,-0.467511,0.466165,2.03769,0
64170,-0.461914,0.468921,2.03911,0
64190,-0.456364,0.470725,2.04102,0
64210,-0.45226,0.470112,2.04274,0
64230,-0.449444,0.46895,2.04481,0
64250,-0.447246,0.469112,2.04637,0
64270,-0.444468,0.471227,2.04723,0
64290,-0.440156,0.473327,2.04837,0
64310,-0.435987,0.474579,2.04964,0
64330,-0.432995,0.475118,2.05075,0
64350,-0.430877,0.475775,2.0517,0
64370,-0.429169,0.476972,2.05251,0
64390,-0.427473,0.4783,2.05344,0
64410,-0.426282,0.479546,2.05457,0
64430,-0.425253,0.480853,2.05575,0
64450,-0.424661,0.481871,2.05673,0
64470,-0.424355,0.483017,2.05752,0
64490,-0.424274,0.483379,2.05758,0
64510,-0.424194,0.483741,2.05764,0
64530,-0.423588,0.484711,2.05779,0
64550,-0.42302,0.485324,2.0576,0
64570,-0.422591,0.485741,2.05758,0
64590,-0.422623,0.486041,2.05763,0
64610,-0.422595,0.486177,2.05746,0
64630,-0.422424,0.486423,2.05752,0
64650,-0.422456,0.486724,2.05758,0
64670,-0.422532,0.487806,2.05807,0
64690,-0.42223,0.488645,2.05877,0
64710,-0.422188,0.489,2.05878,0
64730,-0.422129,0.489185,2.05883,0
64750,-0.421307,0.489974,2.05922,0
64770,-0.420583,0.490571,2.0595,0
64790,-0.419565,0.490997,2.0598,0
64810,-0.418585,0.491416,2.06004,0
64830,-0.416983,0.491893,2.06049,0
64850,-0.415361,0.492196,2.06067,0
64870,-0.413617,0.492433,2.06108,0
64890,-0.411678,0.492308,2.0614,0
64910,-0.409444,0.492362,2.06168,0
64930,-0.407368,0.492435,2.06184,0
64950,-0.405903,0.492323,2.06167,0
64970,-0.40459,0.492143,2.06177,0
64990,-0.403446,0.492066,2.06209,0
65010,-0.401726,0.492127,2.06251,0
65030,-0.39966,0.492242,2.06317,0
65050,-0.397729,0.492117,2.06383,0
65070,-0.396162,0.492107,2.06452,0
65090,-0.394741,0.492376,2.06543,0
65110,-0.393562,0.492739,2.06603,0
65130,-0.39251,0.493212,2.06658,0
65150,-0.391743,0.493377,2.06704,0
65170,-0.390899,0.493553,2.06762,0
65190,-0.390266,0.493914,2.06796,0
65210,-0.389784,0.494209,2.06823,0
65230,-0.38956,0.494332,2.06825,0
65250,-0.388989,0.49451,2.06853,0
65270,-0.388507,0.494804,2.0688,0
65290,-0.388283,0.494928,2.06882,0
65310,-0.38831,0.495229,2.06889,0
65330,-0.388287,0.495407,2.06889,0
65350,-0.388588,0.495706,2.06899,0
65370,-0.388762,0.495894,2.06914,0
65390,-0.38899,0.496246,2.06952,0
65410,-0.389358,0.496837,2.06995,0
65430,-0.389749,0.49725,2.07038,0
65450,-0.390027,0.497725,2.07081,0
65470,-0.390395,0.498317,2.07124,0
65490,-0.39074,0.499089,2.07169,0
65510,-0.391029,0.499695,2.0719,0
65530,-0.391478,0.499887,2.07175,0
65550,-0.391455,0.500065,2.07176,0
65570,-0.391505,0.500188,2.07181,0
65590,-0.391482,0.500367,2.07182,0
65610,-0.391566,0.500441,2.07164,0
65620,-0.391504,0.500625,2.0717,0
65640,-0.391593,0.500743,2.0717,0
65660,-0.39157,0.500921,2.07171,0
65680,-0.391935,0.501038,2.07174,0
65700,-0.392496,0.501167,2.07158,0
65720,-0.392586,0.501285,2.07158,0
65740,-0.392523,0.501469,2.07164,0
65760,-0.392422,0.501658,2.07176,0
65780,-0.392085,0.501843,2.0718,0
65800,-0.391961,0.501777,2.0717,0
65820,-0.391833,0.501668,2.07142,0
65840,-0.391446,0.501731,2.0714,0
65860,-0.391423,0.50191,2.07141,0
65880,-0.391187,0.501902,2.07166,0
65900,-0.391012,0.502148,2.07173,0
65920,-0.390466,0.502189,2.07218,0
65940,-0.390005,0.502304,2.07245,0
65960,-0.389764,0.502254,2.07252,0
65980,-0.389307,0.502411,2.07296,0
66000,-0.388841,0.502484,2.07306,0
66020,-0.388357,0.502778,2.07334,0
66040,-0.388407,0.502901,2.07339,0
66060,-0.388422,0.503071,2.07368,0
66080,-0.388422,0.503071,2.07368,0
66100,-0.388747,0.503193,2.07376,0
66120,-0.388836,0.50331,2.07376,0
66140,-0.388813,0.503489,2.07377,0
66160,-0.388773,0.503494,2.07383,0
66180,-0.38875,0.503673,2.07383,0
66200,-0.388598,0.50374,2.0739,0
66220,-0.388451,0.503849,2.07415,0
66240,-0.388428,0.504028,2.07416,0
66260,-0.388388,0.504033,2.07421,0
66280,-0.388478,0.504151,2.07421,0
66300,-0.388567,0.504268,2.07421,0
66320,-0.388504,0.504452,2.07427,0
66340,-0.388465,0.504457,2.07433,0
66360,-0.388081,0.504559,2.07482,0
66380,-0.387634,0.504844,2.07538,0
66400,-0.387516,0.504863,2.07522,0
66420,-0.387442,0.504915,2.07551,0
66440,-0.387869,0.504848,2.07547,0
66460,-0.388257,0.504786,2.07549,0
66480,-0.388744,0.50497,2.07561,0
66500,-0.388721,0.505149,2.07562,0
66520,-0.388646,0.505201,2.07591,0
66540,-0.388799,0.505135,2.07584,0
66560,-0.388822,0.504956,2.07584,0
66580,-0.388911,0.505073,2.07583,0
66600,-0.388956,0.505153,2.07571,0
66620,-0.389523,0.505327,2.07573,0
66640,-0.389612,0.505444,2.07572,0
66660,-0.389662,0.505567,2.07578,0
66680,-0.389549,0.505628,2.07579,0
66700,-0.389639,0.505746,2.07579,0
66720,-0.389599,0.505751,2.07584,0
66740,-0.389536,0.505935,2.07591,0
66760,-0.389626,0.506053,2.07591,0
66780,-0.389473,0.50612,2.07598,0
66800,-0.389563,0.506237,2.07597,0
66820,-0.389563,0.506237,2.07597,0
66840,-0.389928,0.506355,2.076,0
66860,-0.390365,0.506416,2.07608,0
66880,-0.390455,0.506533,2.07607,0
66900,-0.390853,0.5066,2.0762,0
66920,-0.39074,0.506661,2.07622,0
66940,-0.39083,0.506779,2.07621,0
66960,-0.39083,0.506779,2.07621,0
66980,-0.390807,0.506958,2.07622,0
67000,-0.390845,0.50695,2.0765,0
67020,-0.39084,0.506907,2.07632,0
67040,-0.390817,0.507086,2.07633,0
67060,-0.390906,0.507204,2.07633,0
67080,-0.390906,0.507204,2.07633,0
67100,-0.391029,0.50727,2.07643,0
67120,-0.391119,0.507388,2.07643,0
67140,-0.391119,0.507388,2.07643,0
67160,-0.391208,0.507506,2.07643,0
67180,-0.391185,0.507685,2.07644,0
67200,-0.391275,0.507803,2.07643,0
67220,-0.391673,0.507869,2.07656,0
67240,-0.392501,0.507872,2.07632,0
67260,-0.392935,0.507891,2.07622,0
67280,-0.393428,0.508119,2.07652,0
67300,-0.393881,0.508352,2.07689,0
67320,-0.393858,0.508531,2.07689,0
67340,-0.393931,0.508475,2.07694,0
67360,-0.394117,0.508358,2.07697,0
67380,-0.394004,0.508419,2.07699,0
67400,-0.394094,0.508537,2.07698,0
67420,-0.394548,0.50877,2.07735,0
67440,-0.394638,0.508888,2.07734,0
67460,-0.394387,0.509188,2.07771,0
67480,-0.393898,0.50948,2.07833,0
67500,-0.393988,0.509598,2.07833,0
67520,-0.39375,0.509589,2.07857,0
67540,-0.393835,0.509664,2.07839,0
67560,-0.393722,0.509726,2.07841,0
67580,-0.393812,0.509843,2.0784,0
67600,-0.393749,0.510028,2.07847,0
67620,-0.393839,0.510146,2.07847,0
67640,-0.393839,0.510146,2.07847,0
67660,-0.393839,0.510146,2.07847,0
67680,-0.393929,0.510264,2.07846,0
67700,-0.393906,0.510443,2.07847,0
67720,-0.393861,0.510405,2.07836,0
67740,-0.393951,0.510523,2.07835,0
67760,-0.394041,0.510641,2.07835,0
67780,-0.393928,0.510702,2.07836,0
67800,-0.393978,0.510826,2.07842,0
67820,-0.394067,0.510943,2.07841,0
67840,-0.393955,0.511005,2.07843,0
67860,-0.394044,0.511123,2.07842,0
67880,-0.393927,0.511141,2.07826,0
67900,-0.393976,0.511264,2.07831,0
67920,-0.394066,0.511382,2.07831,0
67940,-0.394066,0.511382,2.07831,0
67960,-0.394043,0.511561,2.07832,0
67980,-0.393489,0.511558,2.0786,0
68000,-0.393489,0.511558,2.0786,0
68020,-0.393579,0.511676,2.07859,0
68040,-0.393629,0.511799,2.07865,0
68060,-0.393516,0.511861,2.07866,0
68080,-0.393606,0.511979,2.07866,0
68100,-0.393495,0.512081,2.07918,0
68120,-0.393427,0.512222,2.07907,0
68140,-0.393252,0.512029,2.07925,0
68160,-0.39304,0.511844,2.07916,0
